
Cycle 1
Physical Cycle 1
Step 1

Time (s),          Potential (V),         Current (A)
0.104999996722     0.002641000086     -0.000000859646     
0.209999993443     0.007922000252     -0.000000832902     
0.314999997616     0.013203999959     -0.000000802336     
0.419999986887     0.018485000357     -0.000000775592     
0.449999988079     0.028552999720     -0.000000717045     
0.555000007153     0.033833999187     -0.000000693580     
0.660000026226     0.039115998894     -0.000000671653     
0.764999985695     0.044231999665     -0.000000652419     
0.870000004768     0.049678999931     -0.000000632031     
0.975000023842     0.054960001260     -0.000000611643     
1.080000042915     0.060240998864     -0.000000592024     
1.184999942780     0.065357998013     -0.000000571636     
1.289999961853     0.070638999343     -0.000000553941     
1.394999980927     0.075920999050     -0.000000535476     
1.500000000000     0.081202000380     -0.000000516627     
1.605000019073     0.086484000087     -0.000000499316     
1.710000038147     0.091600000858     -0.000000481236     
1.815000057220     0.096881002188     -0.000000463925     
1.919999957085     0.102328002453     -0.000000445845     
2.025000095367     0.107608996332     -0.000000427765     
2.130000114441     0.112726002932     -0.000000410839     
2.234999895096     0.118006996810     -0.000000393144     
2.339999914169     0.123288996518     -0.000000375833     
2.444999933243     0.128570005298     -0.000000360061     
2.549999952316     0.133851006627     -0.000000342751     
2.654999971390     0.139133006334     -0.000000326594     
2.759999990463     0.144413992763     -0.000000310053     
2.859999895096     0.151015996933     -0.000000287554     
2.964999914169     0.156297996640     -0.000000270599     
3.069999933243     0.161578997970     -0.000000256127     
3.174999952316     0.166694998741     -0.000000240687     
3.279999971390     0.171976998448     -0.000000224953     
3.384999990463     0.177257999778     -0.000000209008     
3.490000009537     0.182539999485     -0.000000191128     
3.595000028610     0.187821000814     -0.000000175814     
3.700000047684     0.193103000522     -0.000000160584     
3.805000066757     0.198384001851     -0.000000142915     
3.910000085831     0.203500002623     -0.000000126044     
4.014999866486     0.208947002888     -0.000000109637     
4.119999885559     0.214063003659     -0.000000092934     
4.224999904633     0.219345003366     -0.000000071436     
4.329999923706     0.224626004696     -0.000000053220     
4.434999942780     0.229743003845     -0.000000036391     
4.539999961853     0.235189005733     -0.000000019395     
4.644999980927     0.240305006504     -0.000000003786     
4.750000000000     0.245587006211     0.000000010686     
4.855000019073     0.250867992640     0.000000028314     
4.960000038147     0.256150007248     0.000000043880     
5.065000057220     0.261265993118     0.000000059320     
5.170000076294     0.266712993383     0.000000075223     
5.275000095367     0.271993994713     0.000000091294     
5.380000114441     0.277110010386     0.000000104504     
5.485000133514     0.282391995192     0.000000114306     
5.590000152588     0.287672996521     0.000000130504     
5.695000171661     0.292955011129     0.000000147248     
5.800000190735     0.298070997000     0.000000158901     
5.905000209808     0.303353011608     0.000000170176     
6.010000228882     0.308634012938     0.000000183849     
6.114999771118     0.313915014267     0.000000200299     
6.219999790192     0.319196999073     0.000000216875     
6.324999809265     0.324478000402     0.000000228907     
6.429999828339     0.329594999552     0.000000246493     
6.534999847412     0.334876000881     0.000000261302     
6.639999866486     0.340157985687     0.000000275900     
6.744999885559     0.345438987017     0.000000292897     
6.849999904633     0.350719988346     0.000000309851     
6.954999923706     0.356002002954     0.000000324955     
7.059999942780     0.361283004284     0.000000338586     
7.164999961853     0.366400003433     0.000000357644     
7.269999980927     0.371845990419     0.000000373000     
7.375000000000     0.376962989569     0.000000388945     
7.480000019073     0.382243990898     0.000000404974     
7.585000038147     0.387360006571     0.000000422643     
7.690000057220     0.392641991377     0.000000439009     
7.795000076294     0.398088008165     0.000000454028     
7.900000095367     0.403205007315     0.000000468500     
8.005000114441     0.408486008644     0.000000482089     
8.109999656677     0.413767993450     0.000000497908     
8.215000152588     0.419048994780     0.000000513348     
8.319999694824     0.424329996109     0.000000526895     
8.425000190735     0.429446995258     0.000000541367     
8.529999732971     0.434727996588     0.000000559710     
8.635000228882     0.440010011196     0.000000577253     
8.739999771118     0.445291012526     0.000000592525     
8.845000267029     0.450572997332     0.000000611878     
8.949999809265     0.455853998661     0.000000626981     
9.055000305176     0.460970014334     0.000000640402     
9.159999847412     0.466251999140     0.000000655253     
9.265000343323     0.471533000469     0.000000672249     
9.369999885559     0.476649999619     0.000000688909     
9.475000381470     0.482095986605     0.000000710702     
9.579999923706     0.487378001213     0.000000727530     
9.685000419617     0.492493987083     0.000000742718     
9.789999961853     0.497774988413     0.000000758452     
9.895000457764     0.503057003021     0.000000774187     
10.000000000000     0.508337974548     0.000000788575     
10.104999542236     0.513620018959     0.000000804646     
10.210000038147     0.518900990486     0.000000821138     
10.314999580383     0.524182975292     0.000000836283     
10.420000076294     0.529299020767     0.000000851050     
10.524999618530     0.534579992294     0.000000867963     
10.630000114441     0.539861977100     0.000000884833     
10.734999656677     0.545143008232     0.000000900820     
10.840000152588     0.550260007381     0.000000917312     
10.944999694824     0.555540978909     0.000000932962     
11.050000190735     0.560823023319     0.000000948570     
11.154999732971     0.566103994846     0.000000964894     
11.260000228882     0.571385025978     0.000000980965     
11.364999771118     0.576667010784     0.000000997078     
11.470000267029     0.581947982311     0.000001013359     
11.574999809265     0.587230026722     0.000001029010     
11.595000267029     0.598287999630     0.000001061720     
11.699999809265     0.603568971157     0.000001077491     
11.805000305176     0.608851015568     0.000001092494     
11.909999847412     0.614131987095     0.000001108651     
12.015000343323     0.619413971901     0.000001125577     
12.119999885559     0.624530017376     0.000001140579     
12.225000381470     0.629810988903     0.000001156351     
12.329999923706     0.635092973709     0.000001172892     
12.435000419617     0.640374004841     0.000001188664     
12.539999961853     0.645655989647     0.000001204052     
12.645000457764     0.650937020779     0.000001220977     
12.750000000000     0.656219005585     0.000001236749     
12.854999542236     0.661499977112     0.000001253291     
12.960000038147     0.666781008244     0.000001269447     
13.064999580383     0.671898007393     0.000001284450     
13.170000076294     0.677178978920     0.000001299837     
13.274999618530     0.682461023331     0.000001316378     
13.380000114441     0.687741994858     0.000001332535     
13.484999656677     0.693023979664     0.000001348692     
13.590000152588     0.698305010796     0.000001365233     
13.694999694824     0.703585982323     0.000001381389     
13.800000190735     0.708868026733     0.000001397546     
13.904999732971     0.714148998260     0.000001415241     
14.010000228882     0.719430983067     0.000001432167     
14.114999771118     0.724712014198     0.000001447939     
14.220000267029     0.729993999004     0.000001464865     
14.324999809265     0.735274970531     0.000001482176     
14.430000305176     0.740556001663     0.000001498717     
14.534999847412     0.745673000813     0.000001514874     
14.640000343323     0.750953972340     0.000001531800     
14.744999885559     0.756236016750     0.000001549110     
14.850000381470     0.761516988277     0.000001565652     
14.954999923706     0.766798973083     0.000001582193     
15.060000419617     0.772080004215     0.000001598350     
15.164999961853     0.777360975742     0.000001615276     
15.270000457764     0.782643020153     0.000001634510     
15.375000000000     0.787923991680     0.000001652205     
15.479999542236     0.793205976486     0.000001668361     
15.585000038147     0.798487007618     0.000001682210     
15.689999580383     0.803768992424     0.000001701829     
15.795000076294     0.808884978294     0.000001717601     
15.899999618530     0.814166009426     0.000001735681     
16.004999160767     0.819447994232     0.000001753761     
16.110000610352     0.824729025364     0.000001771456     
16.215000152588     0.830011010170     0.000001788767     
16.319999694824     0.835126996040     0.000001806077     
16.424999237061     0.840408980846     0.000001823388     
16.530000686646     0.845690011978     0.000001839929     
16.635000228882     0.850971996784     0.000001855316     
16.739999771118     0.856253027916     0.000001871088     
16.844999313354     0.861533999443     0.000001888784     
16.950000762939     0.866815984249     0.000001907248     
17.055000305176     0.872097015381     0.000001924174     
17.159999847412     0.877379000187     0.000001940716     
17.264999389648     0.882659971714     0.000001958411     
17.370000839233     0.887942016125     0.000001976106     
17.475000381470     0.893222987652     0.000001991494     
17.579999923706     0.898338973522     0.000002010343     
17.684999465942     0.903621017933     0.000002027654     
17.790000915527     0.908901989460     0.000002044195     
17.895000457764     0.914183974266     0.000002061505     
18.000000000000     0.919629991055     0.000002079970     
18.104999542236     0.924746990204     0.000002096896     
18.209999084473     0.930028021336     0.000002114976     
18.315000534058     0.935308992863     0.000002133826     
18.420000076294     0.940590977669     0.000002151136     
18.524999618530     0.945707023144     0.000002169216     
18.629999160767     0.950989007950     0.000002188450     
18.735000610352     0.956269979477     0.000002205761     
18.840000152588     0.961552023888     0.000002223071     
18.944999694824     0.966832995415     0.000002240767     
19.049999237061     0.972114026546     0.000002258462     
19.155000686646     0.977396011353     0.000002276157     
19.260000228882     0.982511997223     0.000002294622     
19.364999771118     0.987959027290     0.000002312317     
19.469999313354     0.993239998817     0.000002329243     
19.575000762939     0.998356997967     0.000002346939     
19.680000305176     1.003638029099     0.000002363480     
19.784999847412     1.008919000626     0.000002379252     
19.889999389648     1.014201045036     0.000002396563     
19.995000839233     1.019482016563     0.000002413489     
20.100000381470     1.024763941765     0.000002433107     
20.204999923706     1.030045032501     0.000002453111     
20.309999465942     1.035161972046     0.000002471575     
20.415000915527     1.040442943573     0.000002489655     
20.520000457764     1.045724034309     0.000002506581     
20.625000000000     1.051005959511     0.000002524661     
20.729999542236     1.056287050247     0.000002542357     
20.834999084473     1.061568975449     0.000002560052     
20.940000534058     1.066849946976     0.000002577747     
21.045000076294     1.072131991386     0.000002596597     
21.149999618530     1.077412962914     0.000002614677     
21.254999160767     1.082695007324     0.000002633141     
21.360000610352     1.087810993195     0.000002650452     
21.465000152588     1.093091964722     0.000002668917     
21.569999694824     1.098538994789     0.000002686227     
21.674999237061     1.103654980659     0.000002707385     
21.780000686646     1.108937025070     0.000002725080     
21.885000228882     1.114217996597     0.000002741621     
21.989999771118     1.119500041008     0.000002760086     
22.094999313354     1.124781012535     0.000002780090     
22.200000762939     1.129896998405     0.000002799324     
22.305000305176     1.135344028473     0.000002818558     
22.409999847412     1.140460014343     0.000002836253     
22.514999389648     1.145742058754     0.000002853564     
22.620000839233     1.151023030281     0.000002871259     
22.725000381470     1.156304955482     0.000002888185     
22.829999923706     1.161586046219     0.000002907804     
22.934999465942     1.166867017746     0.000002927422     
23.040000915527     1.172148942947     0.000002945502     
23.145000457764     1.177430033684     0.000002963967     
23.250000000000     1.182711958885     0.000002982432     
23.354999542236     1.187827944756     0.000003000127     
23.459999084473     1.193109989166     0.000003018592     
23.565000534058     1.198225975037     0.000003037056     
23.670000076294     1.196079969406     0.000003018976     
23.774999618530     1.190963983536     0.000002988587     
23.879999160767     1.185683012009     0.000002959736     
23.985000610352     1.180400967598     0.000002932423     
24.090000152588     1.175119996071     0.000002904726     
24.194999694824     1.170003056526     0.000002879337     
24.299999237061     1.164721965790     0.000002853564     
24.405000686646     1.159440040588     0.000002827790     
24.510000228882     1.154158949852     0.000002801247     
24.614999771118     1.148877978325     0.000002776627     
24.719999313354     1.143596053123     0.000002751623     
24.825000762939     1.138314962387     0.000002726619     
24.930000305176     1.133033037186     0.000002702384     
25.034999847412     1.127751946449     0.000002677764     
25.139999389648     1.122635006905     0.000002653530     
25.245000839233     1.117354035378     0.000002630449     
25.350000381470     1.112072944641     0.000002605829     
25.454999923706     1.106791019440     0.000002581979     
25.559999465942     1.101510047913     0.000002558513     
25.665000915527     1.096228003502     0.000002534663     
25.770000457764     1.090947031975     0.000002511198     
25.875000000000     1.085664987564     0.000002489271     
25.979999542236     1.080384016037     0.000002465805     
26.084999084473     1.075268030167     0.000002441570     
26.190000534058     1.069821000099     0.000002419259     
26.295000076294     1.064705014229     0.000002397332     
26.399999618530     1.059422969818     0.000002373097     
26.504999160767     1.054141998291     0.000002351940     
26.610000610352     1.048859953880     0.000002331167     
26.715000152588     1.043578982353     0.000002308086     
26.819999694824     1.038297057152     0.000002285390     
26.924999237061     1.033015966415     0.000002264232     
27.030000686646     1.027899980545     0.000002242690     
27.135000228882     1.022618055344     0.000002220763     
27.239999771118     1.017171978951     0.000002199606     
27.344999313354     1.012055039406     0.000002178833     
27.450000762939     1.006773948669     0.000002157291     
27.555000305176     1.001492023468     0.000002135749     
27.659999847412     0.996210992336     0.000002114976     
27.764999389648     0.990930020809     0.000002094203     
27.870000839233     0.985813021660     0.000002073046     
27.975000381470     0.980367004871     0.000002052658     
28.079999923706     0.975085020065     0.000002031116     
28.184999465942     0.969968974590     0.000002011112     
28.290000915527     0.964686989784     0.000001990724     
28.395000457764     0.959406018257     0.000001969567     
28.500000000000     0.954124987125     0.000001949179     
28.604999542236     0.948843002319     0.000001929560     
28.709999084473     0.943561971188     0.000001908787     
28.815000534058     0.938279986382     0.000001886860     
28.920000076294     0.933164000511     0.000001867242     
29.024999618530     0.927716970444     0.000001847238     
29.129999160767     0.922600984573     0.000001828389     
29.235000610352     0.917320013046     0.000001809155     
29.340000152588     0.912038028240     0.000001789536     
29.444999694824     0.906756997108     0.000001769533     
29.549999237061     0.901475012302     0.000001749914     
29.655000686646     0.896193981171     0.000001729910     
29.760000228882     0.890911996365     0.000001709907     
29.864999771118     0.885796010494     0.000001691058     
29.969999313354     0.880514979362     0.000001671824     
30.075000762939     0.875068008900     0.000001652205     
30.180000305176     0.869952023029     0.000001632971     
30.284999847412     0.864669978619     0.000001614121     
30.389999389648     0.859389007092     0.000001594118     
30.495000839233     0.854107022285     0.000001575653     
30.600000381470     0.848825991154     0.000001557189     
30.704999923706     0.843710005283     0.000001538339     
30.809999465942     0.838428020477     0.000001519490     
30.915000915527     0.833146989346     0.000001501795     
31.020000457764     0.827700018883     0.000001482561     
31.125000000000     0.822583973408     0.000001463711     
31.229999542236     0.817301988602     0.000001446016     
31.334999084473     0.812021017075     0.000001428321     
31.440000534058     0.806738972664     0.000001409856     
31.545000076294     0.801458001137     0.000001392545     
31.649999618530     0.796177029610     0.000001374081     
31.754999160767     0.790894985199     0.000001356001     
31.860000610352     0.785778999329     0.000001338305     
31.965000152588     0.780497014523     0.000001319071     
32.069999694824     0.775215983391     0.000001300606     
32.174999237061     0.769769012928     0.000001283680     
32.279998779297     0.764653027058     0.000001265600     
32.384998321533     0.759371995926     0.000001247136     
32.490001678467     0.754090011120     0.000001230210     
32.595001220703     0.748808979988     0.000001212899     
32.700000762939     0.743691980839     0.000001194819     
32.805000305176     0.738246023655     0.000001177509     
32.909999847412     0.733129024506     0.000001149042     
33.014999389648     0.727683007717     0.000001134040     
33.119998931885     0.722567021847     0.000001120960     
33.224998474121     0.717284977436     0.000001105958     
33.330001831055     0.712004005909     0.000001090186     
33.435001373291     0.706722021103     0.000001073260     
33.540000915527     0.701440989971     0.000001056719     
33.645000457764     0.696159005165     0.000001039793     
33.750000000000     0.690877974033     0.000001022867     
33.854999542236     0.685761988163     0.000001006325     
33.959999084473     0.680315017700     0.000000989015     
34.064998626709     0.675033986568     0.000000972089     
34.169998168945     0.669916987419     0.000000956317     
34.275001525879     0.664470970631     0.000000939006     
34.380001068115     0.659188985825     0.000000921696     
34.485000610352     0.654072999954     0.000000905539     
34.590000152588     0.648792028427     0.000000889382     
34.694999694824     0.643344998360     0.000000872457     
34.799999237061     0.638229012489     0.000000855531     
34.904998779297     0.632947027683     0.000000839759     
35.009998321533     0.627665996552     0.000000822833     
35.115001678467     0.622384011745     0.000000805522     
35.220001220703     0.617268025875     0.000000788211     
35.325000762939     0.611820995808     0.000000770901     
