
Cycle 1
Physical Cycle 1
Step 1

Time (s),          Potential (V),         Current (A)
0.104999996722     0.002808999969     -0.000004178449     
0.209999993443     0.007931999862     -0.000002735752     
0.314999997616     0.013220000081     -0.000002244622     
0.419999986887     0.018508000299     -0.000001953013     
0.524999976158     0.023795999587     -0.000001749654     
0.605000019073     0.031397998333     -0.000001472232     
0.709999978542     0.036685999483     -0.000001354623     
0.814999997616     0.041974000633     -0.000001253981     
0.920000016689     0.047262001783     -0.000001165292     
1.024999976158     0.052384998649     -0.000001085858     
1.129999995232     0.057672999799     -0.000001014521     
1.235000014305     0.062960997224     -0.000000948198     
1.340000033379     0.068249002099     -0.000000886116     
1.445000052452     0.073371998966     -0.000000828661     
1.549999952316     0.078824996948     -0.000000775448     
1.654999971390     0.083948001266     -0.000000723777     
1.759999990463     0.089235998690     -0.000000675576     
1.865000009537     0.094524003565     -0.000000630075     
1.970000028610     0.099812000990     -0.000000586117     
2.075000047684     0.105099998415     -0.000000543700     
2.180000066757     0.110388003290     -0.000000503983     
2.285000085831     0.115511000156     -0.000000464266     
2.390000104904     0.120798997581     -0.000000425320     
2.494999885559     0.126086995006     -0.000000388302     
2.599999904633     0.131374999881     -0.000000352441     
2.704999923706     0.136498004198     -0.000000316194     
2.809999942780     0.141950994730     -0.000000281490     
2.914999961853     0.147073999047     -0.000000248328     
2.980000019073     0.155502006412     -0.000000189690     
3.085000038147     0.160789996386     -0.000000158877     
3.190000057220     0.165913000703     -0.000000130048     
3.295000076294     0.171366006136     -0.000000102232     
3.400000095367     0.176488995552     -0.000000075935     
3.505000114441     0.181777000427     -0.000000051791     
3.609999895096     0.187065005302     -0.000000028027     
3.714999914169     0.192187994719     -0.000000003926     
3.819999933243     0.197475999594     0.000000018361     
3.924999952316     0.202764004469     0.000000040564     
4.030000209808     0.208051994443     0.000000062639     
4.135000228882     0.213339999318     0.000000083702     
4.239999771118     0.218463003635     0.000000103203     
4.344999790192     0.223750993609     0.000000122830     
4.449999809265     0.229038998485     0.000000140938     
4.554999828339     0.234162002802     0.000000157105     
4.659999847412     0.239614993334     0.000000172764     
4.764999866486     0.244902998209     0.000000187580     
4.869999885559     0.250025987625     0.000000199863     
4.974999904633     0.255313992500     0.000000210964     
5.079999923706     0.260601997375     0.000000221643     
5.184999942780     0.265724986792     0.000000230296     
5.289999961853     0.271012991667     0.000000237007     
5.394999980927     0.276300996542     0.000000243170     
5.500000000000     0.281589001417     0.000000247729     
5.605000019073     0.286877006292     0.000000250304     
5.710000038147     0.292165011168     0.000000252330     
5.815000057220     0.297288000584     0.000000252963     
5.920000076294     0.302740991116     0.000000251063     
6.025000095367     0.307864010334     0.000000248742     
6.130000114441     0.313151985407     0.000000246294     
6.235000133514     0.318439990282     0.000000242664     
6.340000152588     0.323727995157     0.000000237345     
6.445000171661     0.329016000032     0.000000232660     
6.550000190735     0.334304004908     0.000000227679     
6.655000209808     0.339592009783     0.000000221854     
6.760000228882     0.344714999199     0.000000216916     
6.864999771118     0.350003004074     0.000000211597     
6.969999790192     0.355291008949     0.000000205435     
7.074999809265     0.360579013824     0.000000200201     
7.179999828339     0.365866988897     0.000000196022     
7.284999847412     0.371154993773     0.000000190872     
7.389999866486     0.376278012991     0.000000185596     
7.494999885559     0.381731003523     0.000000181628     
7.599999904633     0.386853992939     0.000000177576     
7.704999923706     0.392141997814     0.000000173397     
7.809999942780     0.397430002689     0.000000170063     
7.914999961853     0.402718007565     0.000000166559     
8.020000457764     0.408006012440     0.000000163056     
8.125000000000     0.413293987513     0.000000159975     
8.229999542236     0.418581992388     0.000000157864     
8.335000038147     0.423869997263     0.000000154741     
8.439999580383     0.428992986679     0.000000151659     
8.545000076294     0.434280991554     0.000000149887     
8.649999618530     0.439568996429     0.000000147903     
8.755000114441     0.444857001305     0.000000145539     
8.859999656677     0.450145006180     0.000000144019     
8.965000152588     0.455433011055     0.000000142416     
9.069999694824     0.460556000471     0.000000140516     
9.175000190735     0.465844005346     0.000000139292     
9.279999732971     0.471132010221     0.000000138574     
9.385000228882     0.476419985294     0.000000136591     
9.489999771118     0.481707990170     0.000000135155     
9.595000267029     0.486995995045     0.000000134649     
9.699999809265     0.492285013199     0.000000133636     
9.805000305176     0.497572988272     0.000000132370     
9.909999847412     0.502861022949     0.000000131821     
10.015000343323     0.508149027824     0.000000131146     
10.119999885559     0.513270974159     0.000000130133     
10.225000381470     0.518559992313     0.000000129837     
10.329999923706     0.523847997189     0.000000129668     
10.435000419617     0.529136002064     0.000000128529     
10.539999961853     0.534424006939     0.000000127853     
10.645000457764     0.539712011814     0.000000128149     
10.750000000000     0.544834971428     0.000000127811     
10.854999542236     0.550122976303     0.000000126882     
10.960000038147     0.555410981178     0.000000127136     
11.064999580383     0.560698986053     0.000000127093     
11.170000076294     0.565986990929     0.000000126629     
11.274999618530     0.571274995804     0.000000127093     
11.380000114441     0.576563000679     0.000000127558     
11.484999656677     0.581851005554     0.000000127136     
11.590000152588     0.587139010429     0.000000127262     
11.694999694824     0.592262029648     0.000000128697     
11.800000190735     0.597549974918     0.000000128951     
11.904999732971     0.602837979794     0.000000128866     
12.010000228882     0.608125984669     0.000000130090     
12.114999771118     0.613413989544     0.000000131019     
12.220000267029     0.618701994419     0.000000131736     
12.324999809265     0.623825013638     0.000000133340     
12.430000305176     0.629113018513     0.000000134776     
12.534999847412     0.634401023388     0.000000135578     
12.640000343323     0.639689028263     0.000000137308     
12.744999885559     0.644976973534     0.000000139587     
12.850000381470     0.650264978409     0.000000141107     
12.954999923706     0.655387997627     0.000000142458     
13.060000419617     0.660676002502     0.000000145033     
13.164999961853     0.665964007378     0.000000147523     
13.270000457764     0.671252012253     0.000000149422     
13.375000000000     0.676540017128     0.000000152124     
13.479999542236     0.681828022003     0.000000154867     
13.585000038147     0.686950981617     0.000000157105     
13.689999580383     0.692403972149     0.000000160228     
13.795000076294     0.697691977024     0.000000163900     
13.899999618530     0.702814996243     0.000000166306     
14.005000114441     0.708103001118     0.000000169008     
14.109999656677     0.713391005993     0.000000172638     
14.215000152588     0.718679010868     0.000000176183     
14.319999694824     0.723967015743     0.000000179138     
14.425000190735     0.729255020618     0.000000182979     
14.529999732971     0.734377980232     0.000000186778     
14.635000228882     0.739665985107     0.000000190197     
14.739999771118     0.744953989983     0.000000194376     
14.845000267029     0.750241994858     0.000000198723     
14.949999809265     0.755529999733     0.000000201973     
15.055000305176     0.760818004608     0.000000205899     
15.159999847412     0.766106009483     0.000000210415     
15.265000343323     0.771229028702     0.000000215058     
15.369999885559     0.776516973972     0.000000218604     
15.475000381470     0.781804978848     0.000000223500     
15.579999923706     0.787092983723     0.000000228143     
15.685000419617     0.792380988598     0.000000232660     
15.789999961853     0.797504007816     0.000000237683     
15.895000457764     0.802792012691     0.000000243128     
16.000000000000     0.808080017567     0.000000247307     
16.104999542236     0.813368022442     0.000000252330     
16.209999084473     0.818656027317     0.000000258492     
16.315000534058     0.823778986931     0.000000263811     
16.420000076294     0.829232990742     0.000000268538     
16.524999618530     0.834354996681     0.000000274574     
16.629999160767     0.839643001556     0.000000280315     
16.735000610352     0.844931006432     0.000000285971     
16.840000152588     0.850219011307     0.000000292218     
16.944999694824     0.855341970921     0.000000298634     
17.049999237061     0.860795974731     0.000000303994     
17.155000686646     0.865917980671     0.000000310284     
17.260000228882     0.871205985546     0.000000317290     
17.364999771118     0.876493990421     0.000000323411     
17.469999313354     0.881783008575     0.000000329278     
17.575000762939     0.887071013451     0.000000336031     
17.680000305176     0.892193019390     0.000000342912     
17.784999847412     0.897481024265     0.000000349116     
17.889999389648     0.902769029140     0.000000355912     
17.995000839233     0.908057987690     0.000000362919     
18.100000381470     0.913345992565     0.000000369124     
18.204999923706     0.918633997440     0.000000375962     
18.309999465942     0.923756003380     0.000000383306     
18.415000915527     0.929044008255     0.000000389680     
18.520000457764     0.934333026409     0.000000395885     
18.625000000000     0.939620971680     0.000000403567     
18.729999542236     0.944908976555     0.000000410532     
18.834999084473     0.950196981430     0.000000417201     
18.940000534058     0.955318987370     0.000000424587     
19.045000076294     0.960772991180     0.000000432016     
19.149999618530     0.965896010399     0.000000438559     
19.254999160767     0.971184015274     0.000000446410     
19.360000610352     0.976472020149     0.000000454556     
19.465000152588     0.981760025024     0.000000461690     
19.569999694824     0.987047970295     0.000000469034     
19.674999237061     0.992170989513     0.000000477561     
19.780000686646     0.997458994389     0.000000485791     
19.885000228882     1.002747058868     0.000000493769     
19.989999771118     1.008034944534     0.000000502380     
20.094999313354     1.013322949409     0.000000511159     
20.200000762939     1.018610954285     0.000000519812     
20.305000305176     1.023733973503     0.000000529352     
20.409999847412     1.029021978378     0.000000539187     
20.514999389648     1.034309983253     0.000000548177     
20.620000839233     1.039597988129     0.000000557759     
20.725000381470     1.044885993004     0.000000568691     
20.829999923706     1.050009012222     0.000000578990     
20.934999465942     1.055462002754     0.000000589205     
21.040000915527     1.060585021973     0.000000600433     
21.145000457764     1.065873026848     0.000000612041     
21.250000000000     1.070996046066     0.000000623226     
21.354999542236     1.076449036598     0.000000635720     
21.459999084473     1.081572055817     0.000000648299     
21.565000534058     1.086859941483     0.000000660286     
21.670000076294     1.092147946358     0.000000672865     
21.774999618530     1.097435951233     0.000000687089     
21.879999160767     1.102558970451     0.000000700681     
21.985000610352     1.107846975327     0.000000714273     
22.090000152588     1.113134980202     0.000000729046     
22.194999694824     1.118422985077     0.000000743988     
22.299999237061     1.123710989952     0.000000759057     
22.405000686646     1.128998994827     0.000000774970     
22.510000228882     1.134122014046     0.000000791179     
22.614999771118     1.139410018921     0.000000806965     
22.719999313354     1.144698023796     0.000000823638     
22.825000762939     1.149986028671     0.000000841915     
22.930000305176     1.155274033546     0.000000859178     
23.034999847412     1.160397052765     0.000000876611     
23.139999389648     1.165685057640     0.000000895479     
23.245000839233     1.170972943306     0.000000914600     
23.350000381470     1.176260948181     0.000000933172     
23.454999923706     1.181383967400     0.000000953433     
23.559999465942     1.186671972275     0.000000973820     
23.665000915527     1.191959977150     0.000000993659     
23.770000457764     1.197247982025     0.000001013666     
23.875000000000     1.196421980858     0.000000958245     
23.979999542236     1.191298961639     0.000000882014     
24.084999084473     1.186010956764     0.000000816420     
24.190000534058     1.180722951889     0.000000759859     
24.295000076294     1.175600051880     0.000000708912     
24.399999618530     1.170146942139     0.000000662734     
24.504999160767     1.165024042130     0.000000621707     
24.610000610352     1.159901022911     0.000000584224     
24.715000152588     1.154613018036     0.000000549486     
24.819999694824     1.149325013161     0.000000518208     
24.924999237061     1.144201993942     0.000000490266     
25.030000686646     1.138913989067     0.000000463420     
25.135000228882     1.133625984192     0.000000438474     
25.239999771118     1.128337979317     0.000000416272     
25.344999313354     1.123049974442     0.000000395674     
25.450000762939     1.117926955223     0.000000376088     
25.555000305176     1.112638950348     0.000000358192     
25.659999847412     1.107350945473     0.000000341603     
25.764999389648     1.102062940598     0.000000325690     
25.870000839233     1.096775054932     0.000000311043     
25.975000381470     1.091487050056     0.000000298296     
26.079999923706     1.086364030838     0.000000285042     
26.184999465942     1.081076025963     0.000000272421     
26.290000915527     1.075788021088     0.000000261742     
26.395000457764     1.070500016212     0.000000251359     
26.500000000000     1.065376996994     0.000000241017     
26.604999542236     1.059924006462     0.000000231858     
26.709999084473     1.054800987244     0.000000223120     
26.815000534058     1.049512982368     0.000000214383     
26.920000076294     1.044224977493     0.000000206616     
27.024999618530     1.038936972618     0.000000199821     
27.129999160767     1.033648967743     0.000000192054     
27.235000610352     1.028525948524     0.000000184921     
27.340000152588     1.023237943649     0.000000179054     
27.444999694824     1.017950057983     0.000000173144     
27.549999237061     1.012662053108     0.000000167150     
27.655000686646     1.007539033890     0.000000161832     
27.760000228882     1.002251029015     0.000000156682     
27.864999771118     0.996963024139     0.000000151406     
27.969999313354     0.991675019264     0.000000146848     
28.075000762939     0.986387014389     0.000000142838     
28.180000305176     0.981099009514     0.000000137772     
28.284999847412     0.975811004639     0.000000133129     
28.389999389648     0.970687985420     0.000000129668     
28.495000839233     0.965234994888     0.000000126080     
28.600000381470     0.960111975670     0.000000121817     
28.704999923706     0.954823970795     0.000000118440     
28.809999465942     0.949536025524     0.000000115021     
28.915000915527     0.944248020649     0.000000111307     
29.020000457764     0.938960015774     0.000000108395     
29.125000000000     0.933836996555     0.000000105820     
29.229999542236     0.928548991680     0.000000102021     
29.334999084473     0.923260986805     0.000000098728     
29.440000534058     0.917972981930     0.000000096365     
29.545000076294     0.912684977055     0.000000093706     
29.649999618530     0.907396972179     0.000000090582     
29.754999160767     0.902108013630     0.000000088092     
29.860000610352     0.896986007690     0.000000085475     
29.965000152588     0.891532003880     0.000000082689     
30.069999694824     0.886409997940     0.000000080536     
30.174999237061     0.881121993065     0.000000078637     
30.280000686646     0.875832974911     0.000000075471     
30.385000228882     0.870545029640     0.000000072938     
30.489999771118     0.865257024765     0.000000071208     
30.594999313354     0.859969019890     0.000000069139     
30.700000762939     0.854847013950     0.000000066396     
30.805000305176     0.849557995796     0.000000064370     
30.909999847412     0.844269990921     0.000000062555     
31.014999389648     0.838981986046     0.000000060064     
31.120000839233     0.833693981171     0.000000058503     
31.225000381470     0.828405976295     0.000000056856     
31.329999923706     0.823283016682     0.000000054197     
31.434999465942     0.817995011806     0.000000052002     
31.540000915527     0.812542021275     0.000000050905     
31.645000457764     0.807419002056     0.000000049005     
31.750000000000     0.802130997181     0.000000046600     
31.854999542236     0.796842992306     0.000000045080     
31.959999084473     0.791719973087     0.000000043349     
32.064998626709     0.786432027817     0.000000041323     
32.169998168945     0.781144022942     0.000000040057     
32.275001525879     0.775856018066     0.000000038664     
32.380001068115     0.770568013191     0.000000036300     
32.485000610352     0.765280008316     0.000000034612     
32.590000152588     0.759992003441     0.000000033515     
32.694999694824     0.754703998566     0.000000031868     
32.799999237061     0.749580979347     0.000000029673     
32.875000000000     0.741483986378     0.000000028139     
32.979999542236     0.736361026764     0.000000026341     
33.084999084473     0.730907976627     0.000000025512     
33.189998626709     0.725785017014     0.000000023891     
33.294998168945     0.720497012138     0.000000021932     
33.400001525879     0.715209007263     0.000000020810     
33.505001068115     0.709921002388     0.000000019458     
33.610000610352     0.704797983170     0.000000017519     
33.715000152588     0.699509978294     0.000000016447     
33.819999694824     0.694221973419     0.000000015398     
33.924999237061     0.688934028149     0.000000013382     
34.029998779297     0.683646023273     0.000000011661     
34.134998321533     0.678358018398     0.000000010904     
34.240001678467     0.673234999180     0.000000009326     
34.345001220703     0.667946994305     0.000000007467     
34.450000762939     0.662658989429     0.000000006480     
34.555000305176     0.657370984554     0.000000005162     
34.659999847412     0.652082979679     0.000000003361     
34.764999389648     0.646960020065     0.000000002385     
34.869998931885     0.641672015190     0.000000001314     
34.974998474121     0.636384010315     -0.000000000588     
35.080001831055     0.631096005440     -0.000000002063     
35.185001373291     0.625808000565     -0.000000002838     
35.290000915527     0.620519995689     -0.000000004486     
35.395000457764     0.615396976471     -0.000000006276     
