
Cycle 1
Physical Cycle 1
Step 1

Time (s),          Potential (V),         Current (A)
0.104999996722     0.002479000017     0.000000602403     
0.209999993443     0.007766999770     0.000000640772     
0.314999997616     0.012889999896     0.000000675305     
0.419999986887     0.018177999184     0.000000713675     
0.449999988079     0.028257999569     0.000000845242     
0.555000007153     0.033546000719     0.000000881103     
0.660000026226     0.038833998144     0.000000913108     
0.764999985695     0.044121999294     0.000000948198     
0.870000004768     0.049244999886     0.000000986758     
0.975000023842     0.054533001035     0.000001021077     
1.080000042915     0.059820998460     0.000001055395     
1.184999942780     0.065108999610     0.000001091642     
1.289999961853     0.070396997035     0.000001124033     
1.394999980927     0.075520001352     0.000001158737     
1.500000000000     0.080807998776     0.000001192284     
1.605000019073     0.086096003652     0.000001226603     
1.710000038147     0.091384001076     0.000001260536     
1.815000057220     0.096671998501     0.000001294084     
1.919999957085     0.101960003376     0.000001328017     
2.025000095367     0.107083000243     0.000001361179     
2.130000114441     0.112535998225     0.000001393955     
2.234999895096     0.117659002542     0.000001427502     
2.339999914169     0.122946999967     0.000001460279     
2.444999933243     0.128234997392     0.000001493055     
2.549999952316     0.133523002267     0.000001526217     
2.654999971390     0.138811007142     0.000001558607     
2.759999990463     0.143933996558     0.000001590612     
2.865000009537     0.149387001991     0.000001623389     
2.970000028610     0.154510006309     0.000001656936     
3.075000047684     0.159797996283     0.000001688556     
3.180000066757     0.165086001158     0.000001720561     
3.285000085831     0.170374006033     0.000001753337     
3.390000104904     0.175661996007     0.000001785727     
3.494999885559     0.180950999260     0.000001817733     
3.599999904633     0.186073005199     0.000001850123     
3.704999923706     0.191526994109     0.000001882899     
3.809999942780     0.196649000049     0.000001914133     
3.914999961853     0.201937004924     0.000001946910     
4.019999980927     0.207225993276     0.000001978915     
4.125000000000     0.212347999215     0.000002010148     
4.230000019073     0.217802003026     0.000002041382     
4.335000038147     0.222923994064     0.000002073387     
4.440000057220     0.228211998940     0.000002107320     
4.545000076294     0.233501002192     0.000002140482     
4.650000095367     0.238789007068     0.000002174030     
4.755000114441     0.244076997042     0.000002206035     
4.860000133514     0.249199002981     0.000002237269     
4.965000152588     0.254653006792     0.000002267346     
5.070000171661     0.259775996208     0.000002299736     
5.175000190735     0.265064001083     0.000002330585     
5.280000209808     0.270352005959     0.000002363746     
5.385000228882     0.275640010834     0.000002398065     
5.489999771118     0.280927985907     0.000002429299     
5.594999790192     0.286051005125     0.000002459762     
5.699999809265     0.291339010000     0.000002491767     
5.804999828339     0.296627014875     0.000002522615     
5.909999847412     0.301914989948     0.000002552306     
6.014999866486     0.307202994823     0.000002584697     
6.119999885559     0.312490999699     0.000002614003     
6.224999904633     0.317779004574     0.000002642923     
6.329999923706     0.322901993990     0.000002674157     
6.434999942780     0.328189998865     0.000002707319     
6.539999961853     0.333478003740     0.000002737781     
6.644999980927     0.338766008615     0.000002766702     
6.750000000000     0.344054013491     0.000002797935     
6.855000019073     0.349177002907     0.000002829555     
6.960000038147     0.354465007782     0.000002859246     
7.065000057220     0.359917998314     0.000002887395     
7.170000076294     0.365040987730     0.000002920172     
7.275000095367     0.370328992605     0.000002949092     
7.380000114441     0.375616997480     0.000002979169     
7.485000133514     0.380905002356     0.000003009631     
7.590000152588     0.386027991772     0.000003035467     
7.695000171661     0.391315996647     0.000003063230     
7.800000190735     0.396604001522     0.000003097935     
7.905000209808     0.401892006397     0.000003132639     
8.010000228882     0.407180011272     0.000003157703     
8.114999771118     0.412303000689     0.000003183153     
8.220000267029     0.417591005564     0.000003215543     
8.324999809265     0.422879010439     0.000003250248     
8.430000305176     0.428166985512     0.000003279939     
8.534999847412     0.433454990387     0.000003308859     
8.640000343323     0.438742995262     0.000003340093     
8.744999885559     0.444031000137     0.000003369013     
8.850000381470     0.449319005013     0.000003399862     
8.954999923706     0.454607009888     0.000003425311     
9.060000419617     0.459729999304     0.000003454617     
9.164999961853     0.465182989836     0.000003485466     
9.270000457764     0.470306009054     0.000003517856     
9.375000000000     0.475594013929     0.000003548319     
9.479999542236     0.480717003345     0.000003577625     
9.585000038147     0.486169993877     0.000003605388     
9.689999580383     0.491293013096     0.000003634308     
9.795000076294     0.496746003628     0.000003669013     
9.899999618530     0.501703977585     0.000003700632     
10.005000114441     0.507157027721     0.000003729552     
10.109999656677     0.512444972992     0.000003758858     
10.215000152588     0.517732977867     0.000003788935     
10.319999694824     0.522855997086     0.000003819783     
10.425000190735     0.528144001961     0.000003849860     
10.529999732971     0.533432006836     0.000003879552     
10.635000228882     0.538720011711     0.000003918112     
10.739999771118     0.544008016586     0.000003965156     
10.845000267029     0.549296021461     0.000004000631     
10.949999809265     0.554418981075     0.000004026852     
11.055000305176     0.559871971607     0.000004055772     
11.159999847412     0.564994990826     0.000004085464     
11.265000343323     0.570282995701     0.000004116312     
11.369999885559     0.575571000576     0.000004149859     
11.475000381470     0.580859005451     0.000004186877     
11.579999923706     0.586147010326     0.000004226209     
11.685000419617     0.591270029545     0.000004265540     
11.789999961853     0.596723973751     0.000004299859     
11.895000457764     0.601845979691     0.000004331478     
12.000000000000     0.607299983501     0.000004360784     
12.104999542236     0.612421989441     0.000004390476     
12.210000038147     0.617709994316     0.000004423252     
12.314999580383     0.622999012470     0.000004458727     
12.420000076294     0.628121018410     0.000004490733     
12.524999618530     0.633409023285     0.000004527365     
12.630000114441     0.638697028160     0.000004560912     
12.734999656677     0.643984973431     0.000004590218     
12.840000152588     0.649273991585     0.000004622609     
12.944999694824     0.654395997524     0.000004666953     
13.050000190735     0.659850001335     0.000004703971     
13.154999732971     0.664972007275     0.000004732120     
13.260000228882     0.670260012150     0.000004767595     
13.364999771118     0.675548970699     0.000004797287     
13.470000267029     0.680836975574     0.000004826593     
13.574999809265     0.686124980450     0.000004863611     
13.680000305176     0.691246986389     0.000004895230     
13.784999847412     0.696534991264     0.000004928392     
13.890000343323     0.701824009418     0.000004960783     
13.994999885559     0.707112014294     0.000004995872     
14.100000381470     0.712400019169     0.000005029034     
14.204999923706     0.717688024044     0.000005061811     
14.310000419617     0.722976028919     0.000005099985     
14.414999961853     0.728098988533     0.000005129291     
14.520000457764     0.733386993408     0.000005161296     
14.625000000000     0.738674998283     0.000005202170     
14.729999542236     0.743963003159     0.000005241887     
14.835000038147     0.749251008034     0.000005273507     
14.939999580383     0.754539012909     0.000005305126     
15.045000076294     0.759827017784     0.000005350627     
15.149999618530     0.764949977398     0.000005399213     
15.255000114441     0.770237982273     0.000005425820     
15.359999656677     0.775525987148     0.000005457825     
15.465000152588     0.780813992023     0.000005490987     
15.569999694824     0.786101996899     0.000005524149     
15.675000190735     0.791390001774     0.000005563094     
15.779999732971     0.796678006649     0.000005584688     
15.885000228882     0.801966011524     0.000005620935     
15.989999771118     0.807088971138     0.000005654868     
16.094999313354     0.812376976013     0.000005691115     
16.200000762939     0.817664980888     0.000005723505     
16.305000305176     0.822952985764     0.000005759752     
16.409999847412     0.828076004982     0.000005797541     
16.514999389648     0.833364009857     0.000005822220     
16.620000839233     0.838652014732     0.000005859238     
16.725000381470     0.843940019608     0.000005888543     
16.829999923706     0.849228024483     0.000005924404     
16.934999465942     0.854516029358     0.000005956410     
17.040000915527     0.859638988972     0.000005987258     
17.145000457764     0.865091979504     0.000006014636     
17.250000000000     0.870214998722     0.000006043556     
17.354999542236     0.875503003597     0.000006079417     
17.459999084473     0.880791008472     0.000006113350     
17.565000534058     0.886079013348     0.000006139571     
17.670000076294     0.891367018223     0.000006176589     
17.774999618530     0.896655023098     0.000006207823     
17.879999160767     0.901777982712     0.000006238285     
17.985000610352     0.907065987587     0.000006264892     
18.090000152588     0.912353992462     0.000006293041     
18.194999694824     0.917641997337     0.000006335072     
18.299999237061     0.922930002213     0.000006360907     
18.405000686646     0.928218007088     0.000006393683     
18.510000228882     0.933341026306     0.000006423760     
18.614999771118     0.938628971577     0.000006460007     
18.719999313354     0.943916976452     0.000006491241     
18.825000762939     0.949204981327     0.000006520547     
18.930000305176     0.954492986202     0.000006557179     
19.034999847412     0.959780991077     0.000006582629     
19.139999389648     0.965068995953     0.000006618104     
19.245000839233     0.970192015171     0.000006647410     
19.350000381470     0.975480020046     0.000006687127     
19.454999923706     0.980768024921     0.000006714505     
19.559999465942     0.986056029797     0.000006764633     
19.665000915527     0.991343975067     0.000006815147     
19.770000457764     0.996631979942     0.000006850237     
19.875000000000     1.001754999161     0.000006891497     
19.979999542236     1.007043004036     0.000006921188     
20.084999084473     1.012331008911     0.000006957435     
20.190000534058     1.017619013786     0.000006986355     
20.295000076294     1.022907018661     0.000007027229     
20.399999618530     1.028195023537     0.000007050365     
20.504999160767     1.033483982086     0.000007086226     
20.610000610352     1.038771986961     0.000007121316     
20.715000152588     1.043894052505     0.000007153707     
20.819999694824     1.049182057381     0.000007186098     
20.924999237061     1.054469943047     0.000007218874     
21.030000686646     1.059759020805     0.000007251264     
21.135000228882     1.065047025681     0.000007281727     
21.239999771118     1.070335030556     0.000007312961     
21.344999313354     1.075456976891     0.000007340339     
21.450000762939     1.080744981766     0.000007378128     
21.555000305176     1.086034059525     0.000007406662     
21.659999847412     1.091321945190     0.000007440981     
21.764999389648     1.096609950066     0.000007469130     
21.870000839233     1.101897954941     0.000007504220     
21.975000381470     1.107185959816     0.000007533911     
22.079999923706     1.112308979034     0.000007565531     
22.184999465942     1.117596983910     0.000007598693     
22.290000915527     1.122884988785     0.000007625685     
22.395000457764     1.128172993660     0.000007656533     
22.500000000000     1.133295059204     0.000007684297     
22.604999542236     1.138749003410     0.000007720543     
22.709999084473     1.143872022629     0.000007756404     
22.815000534058     1.149160027504     0.000007788024     
22.920000076294     1.154448032379     0.000007820800     
23.024999618530     1.159736037254     0.000007852034     
23.129999160767     1.165024042130     0.000007878640     
23.235000610352     1.170312047005     0.000007914116     
23.340000152588     1.175434947014     0.000007948435     
23.444999694824     1.180888056755     0.000007978126     
23.549999237061     1.186010956764     0.000008011288     
23.655000686646     1.191298961639     0.000008040208     
23.760000228882     1.196421980858     0.000008069900     
23.864999771118     1.196751952171     0.000008059874     
23.969999313354     1.191463947296     0.000008012830     
24.075000762939     1.186175942421     0.000007962316     
24.180000305176     1.181053042412     0.000007915273     
24.284999847412     1.175765037537     0.000007871314     
24.389999389648     1.170477032661     0.000007824270     
24.495000839233     1.165189027786     0.000007789566     
24.600000381470     1.159901022911     0.000007734811     
24.704999923706     1.154613018036     0.000007690466     
24.809999465942     1.149325013161     0.000007655376     
24.915000915527     1.144201993942     0.000007617202     
25.020000457764     1.138913989067     0.000007571701     
25.125000000000     1.133625984192     0.000007532369     
25.229999542236     1.128337979317     0.000007489567     
25.334999084473     1.123214960098     0.000007448693     
25.440000534058     1.117761969566     0.000007408590     
25.545000076294     1.112473964691     0.000007363089     
25.649999618530     1.107350945473     0.000007326071     
25.754999160767     1.102062940598     0.000007285969     
25.860000610352     1.096775054932     0.000007248565     
25.965000152588     1.091487050056     0.000007208077     
26.069999694824     1.086199045181     0.000007175301     
26.174999237061     1.080911040306     0.000007134427     
26.280000686646     1.075788021088     0.000007095481     
26.385000228882     1.070500016212     0.000007063476     
26.489999771118     1.065212011337     0.000007028000     
26.594999313354     1.059924006462     0.000006984427     
26.700000762939     1.054636001587     0.000006944710     
26.805000305176     1.049347996712     0.000006904607     
26.909999847412     1.044059991837     0.000006869132     
27.014999389648     1.038936972618     0.000006830572     
27.120000839233     1.033648967743     0.000006792397     
27.225000381470     1.028360962868     0.000006757693     
27.329999923706     1.023072957993     0.000006720675     
27.434999465942     1.017784953117     0.000006682500     
27.540000915527     1.012496948242     0.000006653194     
27.645000457764     1.007374048233     0.000006612320     
27.750000000000     1.002086043358     0.000006578773     
27.854999542236     0.996797978878     0.000006539827     
27.959999084473     0.991509974003     0.000006513220     
28.065000534058     0.986222028732     0.000006469262     
28.170000076294     0.980933010578     0.000006436100     
28.274999618530     0.975645005703     0.000006401781     
28.379999160767     0.970357000828     0.000006369390     
28.485000610352     0.965234994888     0.000006333144     
28.590000152588     0.959946990013     0.000006297283     
28.694999694824     0.954657971859     0.000006263735     
28.799999237061     0.949370026588     0.000006225175     
28.905000686646     0.944082021713     0.000006190085     
29.010000228882     0.938960015774     0.000006158466     
29.114999771118     0.933672010899     0.000006120291     
29.219999313354     0.928382992744     0.000006081731     
29.325000762939     0.923094987869     0.000006047026     
29.430000305176     0.917806982994     0.000006008080     
29.534999847412     0.912518978119     0.000005971062     
29.639999389648     0.907230973244     0.000005938672     
29.745000839233     0.902108013630     0.000005906281     
29.850000381470     0.896820008755     0.000005872734     
29.954999923706     0.891532003880     0.000005838029     
30.059999465942     0.886243999004     0.000005806024     
30.165000915527     0.880955994129     0.000005769392     
30.270000457764     0.875667989254     0.000005735845     
30.375000000000     0.870379984379     0.000005704225     
30.479999542236     0.865257024765     0.000005671063     
30.584999084473     0.859969019890     0.000005639829     
30.690000534058     0.854681015015     0.000005602426     
30.795000076294     0.849393010139     0.000005573120     
30.899999618530     0.844105005264     0.000005532246     
31.004999160767     0.838817000389     0.000005502169     
31.110000610352     0.833693981171     0.000005470164     
31.215000152588     0.828405976295     0.000005433917     
31.319999694824     0.823117971420     0.000005396514     
31.424999237061     0.817830026150     0.000005365280     
31.530000686646     0.812542021275     0.000005330961     
31.635000228882     0.807419002056     0.000005298956     
31.739999771118     0.802130997181     0.000005274663     
31.844999313354     0.796842992306     0.000005237646     
31.950000762939     0.791554987431     0.000005207954     
32.055000305176     0.786266982555     0.000005171707     
32.159999847412     0.780978977680     0.000005139702     
32.264999389648     0.775690972805     0.000005108469     
32.369998931885     0.770568013191     0.000005069523     
32.474998474121     0.765280008316     0.000005034433     
32.580001831055     0.759992003441     0.000005003199     
32.685001373291     0.754703998566     0.000004970423     
32.790000915527     0.749415993690     0.000004938418     
32.895000457764     0.744127988815     0.000004913353     
33.000000000000     0.738839983940     0.000004882120     
33.104999542236     0.733717024326     0.000004849343     
33.209999084473     0.728429019451     0.000004812325     
33.314998626709     0.723141014576     0.000004771452     
33.419998168945     0.717853009701     0.000004739061     
33.525001525879     0.712565004826     0.000004705513     
33.630001068115     0.707276999950     0.000004676593     
33.735000610352     0.701988995075     0.000004644588     
33.840000152588     0.696865975857     0.000004616054     
33.944999694824     0.691577970982     0.000004583663     
34.049999237061     0.686290025711     0.000004547031     
34.154998779297     0.681002020836     0.000004515797     
34.259998321533     0.675879001617     0.000004486491     
34.365001678467     0.670426011086     0.000004456028     
34.470001220703     0.665302991867     0.000004420553     
34.575000762939     0.660014986992     0.000004387005     
34.680000305176     0.654726982117     0.000004359242     
34.784999847412     0.649438977242     0.000004326466     
34.889999389648     0.644150972366     0.000004299088     
34.994998931885     0.638863027096     0.000004264769     
35.099998474121     0.633575022221     0.000004231993     
35.205001831055     0.628287017345     0.000004198831     
35.310001373291     0.622999012470     0.000004176466     
35.415000915527     0.617875993252     0.000004144075     
35.520000457764     0.612587988377     0.000004110142     
