
Cycle 1
Physical Cycle 1
Step 1

Time (s),          Potential (V),         Current (A)
0.104999996722     0.002150000073     -0.000020957936     
0.209999993443     0.007441000082     -0.000012750872     
0.314999997616     0.012567000464     -0.000009453562     
0.419999986887     0.017858000472     -0.000007570473     
0.524999976158     0.023149000481     -0.000006358283     
0.629999995232     0.028440000489     -0.000005508224     
0.735000014305     0.033732000738     -0.000004875446     
0.839999973774     0.038857001811     -0.000004379896     
0.944999992847     0.044149000198     -0.000003979644     
1.049999952316     0.049440000206     -0.000003648007     
1.154999971390     0.054731000215     -0.000003362113     
1.259999990463     0.060022000223     -0.000003118151     
1.365000009537     0.065312996507     -0.000002904683     
1.394999980927     0.075400002301     -0.000002645085     
1.500000000000     0.080691002309     -0.000002487685     
1.605000019073     0.085982002318     -0.000002342954     
1.710000038147     0.091108001769     -0.000002209740     
1.815000057220     0.096399001777     -0.000002089195     
1.919999957085     0.101691000164     -0.000001976327     
2.025000095367     0.106982000172     -0.000001868451     
2.130000114441     0.112273000181     -0.000001767101     
2.234999895096     0.117398999631     -0.000001673045     
2.339999914169     0.122689999640     -0.000001584364     
2.444999933243     0.127981007099     -0.000001500289     
2.549999952316     0.133273005486     -0.000001421973     
2.654999971390     0.138398006558     -0.000001346344     
2.759999990463     0.143855005503     -0.000001272251     
2.865000009537     0.148981004953     -0.000001202381     
2.970000028610     0.154272004962     -0.000001138269     
3.075000047684     0.159563004971     -0.000001076461     
3.180000066757     0.164854004979     -0.000001016189     
3.285000085831     0.170146003366     -0.000000958603     
3.390000104904     0.175437003374     -0.000000902170     
3.494999885559     0.180563002825     -0.000000848040     
3.599999904633     0.185854002833     -0.000000797364     
3.704999923706     0.191145002842     -0.000000750528     
3.809999942780     0.196436002851     -0.000000703692     
3.914999961853     0.201562002301     -0.000000657624     
4.019999980927     0.206853002310     -0.000000613475     
4.125000000000     0.212145000696     -0.000000570862     
4.230000019073     0.217436000705     -0.000000530936     
4.335000038147     0.222727000713     -0.000000493698     
4.440000057220     0.228018000722     -0.000000457227     
4.545000076294     0.233144000173     -0.000000420373     
4.650000095367     0.238600999117     -0.000000383902     
4.755000114441     0.243726998568     -0.000000350503     
4.860000133514     0.249017998576     -0.000000318639     
4.965000152588     0.254308998585     -0.000000287159     
5.070000171661     0.259434998035     -0.000000258366     
5.150000095367     0.267206013203     -0.000000224060     
5.255000114441     0.272498011589     -0.000000195271     
5.360000133514     0.277622997761     -0.000000167866     
5.465000152588     0.282914996147     -0.000000141469     
5.570000171661     0.288206011057     -0.000000115534     
5.675000190735     0.293496996164     -0.000000091235     
5.780000209808     0.298622995615     -0.000000065888     
5.885000228882     0.303914010525     -0.000000039742     
5.989999771118     0.309040009975     -0.000000014520     
6.094999790192     0.314496994019     0.000000008603     
6.199999809265     0.319788008928     0.000000032482     
6.304999828339     0.324914008379     0.000000055690     
6.409999847412     0.330204993486     0.000000079359     
6.514999866486     0.335330992937     0.000000103448     
6.619999885559     0.340622007847     0.000000128712     
6.724999904633     0.345912992954     0.000000151793     
6.829999923706     0.351204007864     0.000000173784     
6.934999942780     0.356330007315     0.000000197453     
7.039999961853     0.361786991358     0.000000222339     
7.144999980927     0.366912990808     0.000000246092     
7.250000000000     0.372204005718     0.000000270685     
7.355000019073     0.377494990826     0.000000295319     
7.460000038147     0.382620990276     0.000000318736     
7.565000057220     0.387912005186     0.000000341944     
7.670000076294     0.393202990294     0.000000368257     
7.775000095367     0.398328989744     0.000000394780     
7.880000114441     0.403620988131     0.000000421009     
7.985000133514     0.409076988697     0.000000446273     
8.090000152588     0.414202988148     0.000000471789     
8.194999694824     0.419328987598     0.000000497976     
8.300000190735     0.424784988165     0.000000525716     
8.404999732971     0.429910987616     0.000000555512     
8.510000228882     0.435202986002     0.000000584679     
8.614999771118     0.440494000912     0.000000612167     
8.720000267029     0.445620000362     0.000000641501     
8.824999809265     0.450910985470     0.000000671382     
8.930000305176     0.456202000380     0.000000702185     
9.034999847412     0.461327999830     0.000000734290     
9.140000343323     0.466619014740     0.000000768115     
9.244999885559     0.471909999847     0.000000799632     
9.350000381470     0.477201998234     0.000000832533     
9.454999923706     0.482327014208     0.000000867072     
9.560000419617     0.487619012594     0.000000903415     
9.664999961853     0.492909997702     0.000000939800     
9.770000457764     0.498035997152     0.000000976899     
9.875000000000     0.503327012062     0.000001014585     
9.970000267029     0.510601997375     0.000001086827     
10.074999809265     0.516058981419     0.000001124833     
10.180000305176     0.521184980869     0.000001165526     
10.284999847412     0.526476025581     0.000001208140     
10.390000343323     0.531767010689     0.000001251904     
10.494999885559     0.537057995796     0.000001294518     
10.600000381470     0.542349994183     0.000001337898     
10.704999923706     0.547475993633     0.000001386654     
10.810000419617     0.552766978741     0.000001436177     
10.914999961853     0.558058023453     0.000001484549     
11.020000457764     0.563349008560     0.000001532921     
11.125000000000     0.568475008011     0.000001583212     
11.229999542236     0.573931992054     0.000001634271     
11.335000038147     0.579056978226     0.000001687249     
11.439999580383     0.584348976612     0.000001742147     
11.545000076294     0.589640021324     0.000001797045     
11.649999618530     0.594931006432     0.000001851559     
11.755000114441     0.600221991539     0.000001905690     
11.859999656677     0.605347990990     0.000001961355     
11.965000152588     0.610638976097     0.000002018173     
12.069999694824     0.615930974483     0.000002076142     
12.175000190735     0.621222019196     0.000002134111     
12.279999732971     0.626348018646     0.000002190161     
12.385000228882     0.631803989410     0.000002245443     
12.489999771118     0.636929988861     0.000002303412     
12.595000267029     0.642220973969     0.000002361381     
12.699999809265     0.647512972355     0.000002418199     
12.805000305176     0.652638018131     0.000002474248     
12.909999847412     0.657930016518     0.000002529914     
13.015000343323     0.663221001625     0.000002583660     
13.119999885559     0.668511986732     0.000002638942     
13.225000381470     0.673802971840     0.000002695376     
13.329999923706     0.679094970226     0.000002750658     
13.435000419617     0.684386014938     0.000002802101     
13.539999961853     0.689677000046     0.000002837420     
13.645000457764     0.694967985153     0.000002868516     
13.750000000000     0.700258970261     0.000002914968     
13.854999542236     0.705385029316     0.000002952974     
13.960000038147     0.710676014423     0.000003035129     
14.064999580383     0.715968012810     0.000003096170     
14.170000076294     0.721258997917     0.000003144925     
14.274999618530     0.726549983025     0.000003188306     
14.380000114441     0.731841027737     0.000003233990     
14.484999656677     0.736967027187     0.000003279291     
14.590000152588     0.742258012295     0.000003322672     
14.694999694824     0.747550010681     0.000003363749     
14.800000190735     0.752840995789     0.000003400220     
14.904999732971     0.757966995239     0.000003437459     
15.010000228882     0.763257980347     0.000003477000     
15.114999771118     0.768549025059     0.000003516158     
15.220000267029     0.773840010166     0.000003551861     
15.324999809265     0.779132008553     0.000003586796     
15.430000305176     0.784422993660     0.000003621731     
15.534999847412     0.789713978767     0.000003653595     
15.640000343323     0.794839978218     0.000003686227     
15.744999885559     0.800131022930     0.000003719626     
15.850000381470     0.805422008038     0.000003753026     
15.954999923706     0.810714006424     0.000003781819     
16.059999465942     0.816004991531     0.000003810611     
16.165000915527     0.821295976639     0.000003839788     
16.270000457764     0.826421976089     0.000003869732     
16.375000000000     0.831713020802     0.000003899293     
16.479999542236     0.837004005909     0.000003927701     
16.584999084473     0.842294991016     0.000003954958     
16.690000534058     0.847586989403     0.000003980680     
16.795000076294     0.852877974510     0.000004008705     
16.899999618530     0.858003973961     0.000004035578     
17.004999160767     0.863295018673     0.000004063987     
17.110000610352     0.868586003780     0.000004083182     
17.215000152588     0.873876988888     0.000004106984     
17.319999694824     0.879168987274     0.000004135776     
17.424999237061     0.884459972382     0.000004160730     
17.530000686646     0.889751017094     0.000004186835     
17.635000228882     0.894877016544     0.000004215244     
17.739999771118     0.900168001652     0.000004238662     
17.844999313354     0.905458986759     0.000004266687     
17.950000762939     0.910750985146     0.000004293176     
18.055000305176     0.916041970253     0.000004319281     
18.159999847412     0.921168029308     0.000004340012     
18.264999389648     0.926459014416     0.000004371876     
18.370000839233     0.931749999523     0.000004402972     
18.475000381470     0.937040984631     0.000004426390     
18.579999923706     0.942332029343     0.000004452495     
18.684999465942     0.947624027729     0.000004481672     
18.790000915527     0.952750027180     0.000004511232     
18.895000457764     0.958041012287     0.000004541177     
19.000000000000     0.963331997395     0.000004571505     
19.104999542236     0.968622982502     0.000004597226     
19.209999084473     0.973914027214     0.000004625635     
19.315000534058     0.979206025600     0.000004655580     
19.420000076294     0.984332025051     0.000004685140     
19.524999618530     0.989623010159     0.000004714317     
19.629999160767     0.994913995266     0.000004743109     
19.735000610352     1.000205039978     0.000004771518     
19.840000152588     1.005496025085     0.000004798007     
19.944999694824     1.010622024536     0.000004827568     
20.049999237061     1.016078948975     0.000004863654     
20.155000686646     1.021204948425     0.000004891679     
20.260000228882     1.026496052742     0.000004924311     
20.364999771118     1.031787037849     0.000004952720     
20.469999313354     1.037078022957     0.000004981128     
20.575000762939     1.042204022408     0.000005013376     
20.680000305176     1.047495007515     0.000005042937     
20.784999847412     1.052786946297     0.000005075568     
20.889999389648     1.058078050613     0.000005107432     
20.995000839233     1.063369035721     0.000005139296     
21.100000381470     1.068660020828     0.000005172696     
21.204999923706     1.073951005936     0.000005208015     
21.309999465942     1.079242944717     0.000005246021     
21.415000915527     1.084368944168     0.000005287866     
21.520000457764     1.089660048485     0.000005328176     
21.625000000000     1.094951033592     0.000005368486     
21.729999542236     1.100242018700     0.000005409947     
21.834999084473     1.105533003807     0.000005458319     
21.940000534058     1.110659003258     0.000005507074     
22.045000076294     1.115950942039     0.000005558901     
22.149999618530     1.121242046356     0.000005611879     
22.254999160767     1.126533031464     0.000005669465     
22.360000610352     1.131824016571     0.000005727434     
22.465000152588     1.137115001678     0.000005791162     
22.569999694824     1.142241001129     0.000005859496     
22.674999237061     1.147531986237     0.000005933589     
22.780000686646     1.152824044228     0.000006006147     
22.885000228882     1.158115029335     0.000006085231     
22.989999771118     1.163241028786     0.000006169305     
23.094999313354     1.168532013893     0.000006257987     
23.200000762939     1.173822999001     0.000006330544     
23.305000305176     1.179113984108     0.000006428439     
23.409999847412     1.184406042099     0.000006523263     
23.514999389648     1.189530968666     0.000006634210     
23.620000839233     1.194823026657     0.000006748613     
23.725000381470     1.197633981705     0.000006669146     
23.829999923706     1.192839026451     0.000006172760     
23.934999465942     1.187546968460     0.000005737799     
24.040000915527     1.182420969009     0.000005354665     
24.145000457764     1.177129983902     0.000005012225     
24.250000000000     1.171838998795     0.000004705487     
24.354999542236     1.166548013687     0.000004430229     
24.459999084473     1.161422014236     0.000004181461     
24.565000534058     1.156131029129     0.000003954575     
24.670000076294     1.150838971138     0.000003748803     
24.774999618530     1.145547986031     0.000003559539     
24.879999160767     1.140421986580     0.000003386016     
24.985000610352     1.135131001472     0.000003227080     
25.090000152588     1.129840016365     0.000003084269     
25.194999694824     1.124714016914     0.000002952206     
25.299999237061     1.119423031807     0.000002827822     
25.405000686646     1.114132046700     0.000002713035     
25.510000228882     1.108839988708     0.000002606695     
25.614999771118     1.103549003601     0.000002508416     
25.719999313354     1.098423004150     0.000002417431     
25.825000762939     1.092967033386     0.000002333356     
25.930000305176     1.087841033936     0.000002252353     
26.034999847412     1.082550048828     0.000002176340     
26.139999389648     1.077258944511     0.000002105702     
26.245000839233     1.071967005730     0.000002040823     
26.350000381470     1.066841006279     0.000001980934     
26.454999923706     1.061385035515     0.000001924885     
26.559999465942     1.056259036064     0.000001869219     
26.665000915527     1.050968050957     0.000001814321     
26.770000457764     1.045676946640     0.000001762878     
26.875000000000     1.040385007858     0.000001716426     
26.979999542236     1.035259008408     0.000001671893     
27.084999084473     1.029803037643     0.000001627744     
27.190000534058     1.024677038193     0.000001585899     
27.295000076294     1.019386053085     0.000001545206     
27.399999618530     1.014094948769     0.000001505280     
27.504999160767     1.008968949318     0.000001468425     
27.610000610352     1.003677964211     0.000001434642     
27.715000152588     0.998386025429     0.000001399707     
27.819999694824     0.993094980717     0.000001365923     
27.924999237061     0.987803995609     0.000001332140     
28.030000686646     0.982513010502     0.000001301044     
28.135000228882     0.977221012115     0.000001269948     
28.239999771118     0.972096025944     0.000001241539     
28.344999313354     0.966804027557     0.000001213898     
28.450000762939     0.961512982845     0.000001184338     
28.555000305176     0.956221997738     0.000001153626     
28.659999847412     0.950931012630     0.000001127136     
28.764999389648     0.945640027523     0.000001102183     
28.870000839233     0.940514028072     0.000001076845     
28.975000381470     0.935222029686     0.000001051508     
29.079999923706     0.929930984974     0.000001025786     
29.184999465942     0.924639999866     0.000000999297     
29.290000915527     0.919349014759     0.000000974727     
29.395000457764     0.914223015308     0.000000953229     
29.500000000000     0.908765971661     0.000000929811     
29.604999542236     0.903639972210     0.000000906393     
29.709999084473     0.898348987103     0.000000882207     
29.815000534058     0.893058001995     0.000000858789     
29.920000076294     0.887767016888     0.000000835371     
30.024999618530     0.882641017437     0.000000813872     
30.129999160767     0.877183973789     0.000000793525     
30.235000610352     0.872058987617     0.000000771259     
30.340000152588     0.866766989231     0.000000747073     
30.444999694824     0.861476004124     0.000000724807     
30.549999237061     0.856185019016     0.000000703692     
30.655000686646     0.850893974304     0.000000681810     
30.760000228882     0.845767974854     0.000000660311     
30.864999771118     0.840476989746     0.000000639197     
30.969999313354     0.835184991360     0.000000616547     
31.075000762939     0.829894006252     0.000000593512     
31.180000305176     0.824603021145     0.000000572782     
31.284999847412     0.819311976433     0.000000553587     
31.389999389648     0.814185976982     0.000000532088     
31.495000839233     0.808894991875     0.000000510590     
31.600000381470     0.803602993488     0.000000486788     
31.704999923706     0.798312008381     0.000000465673     
31.809999465942     0.793021023273     0.000000444559     
31.915000915527     0.787895023823     0.000000425363     
32.020000457764     0.782438993454     0.000000403865     
32.125000000000     0.777312994003     0.000000381215     
32.229999542236     0.772020995617     0.000000358948     
32.334999084473     0.766730010509     0.000000336682     
32.439998626709     0.761439025402     0.000000314416     
32.544998168945     0.756147980690     0.000000292533     
32.604999542236     0.747550010681     0.000000245295     
32.709999084473     0.742258012295     0.000000221710     
32.814998626709     0.737133026123     0.000000198502     
32.919998168945     0.731841027737     0.000000174749     
33.025001525879     0.726549983025     0.000000151835     
33.130001068115     0.721258997917     0.000000128082     
33.235000610352     0.716132998466     0.000000106469     
33.340000152588     0.710842013359     0.000000084101     
33.444999694824     0.705551028252     0.000000062488     
33.549999237061     0.700258970261     0.000000042932     
33.654998779297     0.694967985153     0.000000029251     
33.759998321533     0.689841985703     0.000000017962     
33.865001678467     0.684551000595     0.000000011877     
33.970001220703     0.679260015488     0.000000009694     
33.994998931885     0.668842971325     0.000000016979     
34.099998474121     0.663385987282     0.000000030555     
34.205001831055     0.658095002174     0.000000048461     
34.310001373291     0.652638018131     0.000000069209     
34.345001220703     0.643212974072     0.000000122249     
34.450000762939     0.637921988964     0.000000135552     
34.555000305176     0.632631003857     0.000000148226     
34.659999847412     0.627505004406     0.000000156955     
34.764999389648     0.622214019299     0.000000159893     
34.869998931885     0.616922974586     0.000000157165     
34.974998474121     0.611630976200     0.000000152045     
35.080001831055     0.606339991093     0.000000144617     
35.185001373291     0.601049005985     0.000000135426     
