
Cycle 1
Physical Cycle 1
Step 1

Time (s),          Potential (V),         Current (A)
0.104999996722     0.001818999997     -0.000001219814     
0.209999993443     0.007110000122     -0.000001162636     
0.314999997616     0.012400999665     -0.000001105457     
0.419999986887     0.017692999914     -0.000001052090     
0.449999988079     0.027778999880     -0.000001037303     
0.555000007153     0.033070001751     -0.000000990851     
0.660000026226     0.038196001202     -0.000000944783     
0.764999985695     0.043487001210     -0.000000899866     
0.870000004768     0.048778001219     -0.000000856869     
0.975000023842     0.054069999605     -0.000000814640     
1.080000042915     0.059360999614     -0.000000773179     
1.184999942780     0.064652003348     -0.000000733253     
1.289999961853     0.069778002799     -0.000000694479     
1.394999980927     0.075069002807     -0.000000655705     
1.500000000000     0.080360002816     -0.000000617698     
1.605000019073     0.085652001202     -0.000000580844     
1.710000038147     0.090777002275     -0.000000544373     
1.815000057220     0.096234001219     -0.000000508286     
1.919999957085     0.101360000670     -0.000000473351     
2.025000095367     0.106651000679     -0.000000438416     
2.130000114441     0.111942000687     -0.000000403097     
2.234999895096     0.117233999074     -0.000000368930     
2.339999914169     0.122524999082     -0.000000335530     
2.444999933243     0.127816006541     -0.000000301363     
2.549999952316     0.132942005992     -0.000000267580     
2.565000057220     0.143855005503     -0.000000206434     
2.670000076294     0.149146005511     -0.000000172902     
2.775000095367     0.154437005520     -0.000000140043     
2.880000114441     0.159563004971     -0.000000106973     
2.984999895096     0.164854004979     -0.000000073358     
3.089999914169     0.170146003366     -0.000000040372     
3.194999933243     0.175437003374     -0.000000006841     
3.299999952316     0.180563002825     0.000000027446     
3.404999971390     0.185854002833     0.000000061103     
3.509999990463     0.191145002842     0.000000094341     
3.615000009537     0.196436002851     0.000000128334     
3.720000028610     0.201562002301     0.000000162327     
3.825000047684     0.206853002310     0.000000195774     
3.930000066757     0.212145000696     0.000000230145     
4.034999847412     0.217271000147     0.000000265313     
4.139999866486     0.222562000155     0.000000299306     
4.244999885559     0.227853000164     0.000000333131     
4.349999904633     0.233144000173     0.000000368005     
4.454999923706     0.238269999623     0.000000403173     
4.559999942780     0.243560999632     0.000000437502     
4.664999961853     0.248686999083     0.000000472418     
4.769999980927     0.253978013992     0.000000508048     
4.875000000000     0.259270012379     0.000000542796     
4.980000019073     0.264560997486     0.000000577586     
5.085000038147     0.269852012396     0.000000613720     
5.190000057220     0.274978011847     0.000000649769     
5.295000076294     0.280268996954     0.000000685315     
5.400000095367     0.285394996405     0.000000721322     
5.505000114441     0.290686011314     0.000000757497     
5.610000133514     0.295976996422     0.000000793295     
5.715000152588     0.301268994808     0.000000829470     
5.820000171661     0.306394010782     0.000000866526     
5.925000190735     0.311686009169     0.000000903751     
6.030000209808     0.316976994276     0.000000940681     
6.135000228882     0.322102993727     0.000000978158     
6.239999771118     0.327394008636     0.000001016011     
6.320000171661     0.335496008396     0.000001082988     
6.425000190735     0.340786993504     0.000001121762     
6.530000209808     0.346078991890     0.000001160920     
6.635000228882     0.351370006800     0.000001199310     
6.739999771118     0.356496006250     0.000001238468     
6.844999790192     0.361786991358     0.000001278394     
6.949999809265     0.367078006268     0.000001317552     
7.054999828339     0.372368991375     0.000001357861     
7.159999847412     0.377660989761     0.000001399323     
7.264999866486     0.382952004671     0.000001440400     
7.369999885559     0.388078004122     0.000001481094     
7.474999904633     0.393368989229     0.000001522939     
7.579999923706     0.398660004139     0.000001565936     
7.684999942780     0.403950989246     0.000001608549     
7.789999961853     0.409242004156     0.000001651546     
7.894999980927     0.414368003607     0.000001695311     
8.000000000000     0.419660001993     0.000001739460     
8.104999542236     0.424950987101     0.000001783609     
8.210000038147     0.430242002010     0.000001829677     
8.314999580383     0.435532987118     0.000001875745     
8.420000076294     0.440824002028     0.000001921430     
8.524999618530     0.446116000414     0.000001968649     
8.630000114441     0.451241999865     0.000002015869     
8.734999656677     0.456533014774     0.000002062705     
8.840000152588     0.461823999882     0.000002110309     
8.944999694824     0.467115014791     0.000002159833     
9.050000190735     0.472405999899     0.000002208588     
9.154999732971     0.477697998285     0.000002257728     
9.260000228882     0.482823014259     0.000002307251     
9.364999771118     0.488115012646     0.000002357542     
9.470000267029     0.493405997753     0.000002407449     
9.574999809265     0.498697012663     0.000002458125     
9.680000305176     0.503822982311     0.000002509951     
9.784999847412     0.509114027023     0.000002561394     
9.890000343323     0.514405012131     0.000002612837     
9.994999885559     0.519697010517     0.000002665048     
10.100000381470     0.524987995625     0.000002717258     
10.204999923706     0.530278980732     0.000002769853     
10.310000419617     0.535570025444     0.000002823599     
10.414999961853     0.540861010551     0.000002877729     
10.520000457764     0.545987010002     0.000002931476     
10.625000000000     0.551279008389     0.000002984838     
10.729999542236     0.556569993496     0.000003039352     
10.835000038147     0.561695992947     0.000003094250     
10.939999580383     0.566986978054     0.000003149148     
11.045000076294     0.572278022766     0.000003205198     
11.149999618530     0.577569007874     0.000003262015     
11.255000114441     0.582861006260     0.000003316913     
11.359999656677     0.587985992432     0.000003373347     
11.465000152588     0.593277990818     0.000003430932     
11.569999694824     0.598568975925     0.000003488901     
11.675000190735     0.603860020638     0.000003546103     
11.779999732971     0.608986020088     0.000003604456     
11.885000228882     0.614441990852     0.000003662809     
11.989999771118     0.619733989239     0.000003721162     
12.095000267029     0.625024974346     0.000003779515     
12.199999809265     0.630150973797     0.000003839788     
12.305000305176     0.635442018509     0.000003899677     
12.409999847412     0.640733003616     0.000003959181     
12.515000343323     0.646023988724     0.000004019454     
12.619999885559     0.651149988174     0.000004079343     
12.725000381470     0.656440973282     0.000004138847     
12.829999923706     0.661732971668     0.000004199504     
12.935000419617     0.667024016380     0.000004260544     
13.039999961853     0.672315001488     0.000004321585     
13.145000457764     0.677605986595     0.000004381857     
13.250000000000     0.682897984982     0.000004443282     
13.354999542236     0.688022971153     0.000004503554     
13.460000038147     0.693315029144     0.000004564211     
13.564999580383     0.698606014252     0.000004625251     
13.670000076294     0.703896999359     0.000004686292     
13.774999618530     0.709187984467     0.000004745029     
13.880000114441     0.714479982853     0.000004804917     
13.984999656677     0.719605028629     0.000004864806     
14.090000152588     0.724897027016     0.000004925463     
14.194999694824     0.730352997780     0.000004984584     
14.300000190735     0.735478997231     0.000005043321     
14.404999732971     0.740769982338     0.000005102441     
14.510000228882     0.746061027050     0.000005160795     
14.614999771118     0.751187026501     0.000005218764     
14.720000267029     0.756479024887     0.000005277117     
14.824999809265     0.761770009995     0.000005335470     
14.930000305176     0.767060995102     0.000005393439     
15.034999847412     0.772351980209     0.000005450257     
15.140000343323     0.777643024921     0.000005507074     
15.244999885559     0.782935023308     0.000005563508     
15.350000381470     0.788060009480     0.000005620325     
15.454999923706     0.793352007866     0.000005677527     
15.560000419617     0.798642992973     0.000005733192     
15.664999961853     0.803933978081     0.000005788090     
15.770000457764     0.809225022793     0.000005843756     
15.875000000000     0.814517021179     0.000005899038     
15.979999542236     0.819642007351     0.000005953552     
16.084999084473     0.824934005737     0.000006008834     
16.190000534058     0.830224990845     0.000006064500     
16.295000076294     0.835515975952     0.000006117862     
16.399999618530     0.840807020664     0.000006170841     
16.504999160767     0.845933020115     0.000006224971     
16.610000610352     0.851224005222     0.000006279485     
16.715000152588     0.856516003609     0.000006332080     
16.819999694824     0.861806988716     0.000006385442     
16.924999237061     0.867097973824     0.000006438804     
17.030000686646     0.872389018536     0.000006491399     
17.135000228882     0.877515017986     0.000006543610     
17.239999771118     0.882806003094     0.000006596972     
17.344999313354     0.888098001480     0.000006649950     
17.450000762939     0.893388986588     0.000006702161     
17.555000305176     0.898679971695     0.000006753604     
17.659999847412     0.903805971146     0.000006805431     
17.764999389648     0.909097015858     0.000006855722     
17.870000839233     0.914388000965     0.000006907933     
17.975000381470     0.919678986073     0.000006960143     
18.079999923706     0.924804985523     0.000007010818     
18.184999465942     0.930262029171     0.000007061493     
18.290000915527     0.935388028622     0.000007113320     
18.395000457764     0.940679013729     0.000007164763     
18.500000000000     0.945969998837     0.000007215054     
18.604999542236     0.951260983944     0.000007266113     
18.709999084473     0.956552982330     0.000007317556     
18.815000534058     0.961844027042     0.000007367079     
18.920000076294     0.967135012150     0.000007416603     
19.024999618530     0.972261011600     0.000007466894     
19.129999160767     0.977551996708     0.000007517953     
19.235000610352     0.982842981815     0.000007567092     
19.340000152588     0.987968981266     0.000007617383     
19.444999694824     0.993260025978     0.000007666907     
19.549999237061     0.998552024364     0.000007715278     
19.655000686646     1.003842949867     0.000007763266     
19.760000228882     1.009134054184     0.000007812406     
19.864999771118     1.014425039291     0.000007859626     
19.969999313354     1.019716978073     0.000007905694     
20.075000762939     1.024842023849     0.000007949843     
20.180000305176     1.030133962631     0.000007992456     
20.284999847412     1.035424947739     0.000008036604     
20.389999389648     1.040716052055     0.000008082289     
20.495000839233     1.046007037163     0.000008127973     
20.600000381470     1.051133036613     0.000008174425     
20.704999923706     1.056424021721     0.000008218958     
20.809999465942     1.061715960503     0.000008264258     
20.915000915527     1.067006945610     0.000008309943     
21.020000457764     1.072298049927     0.000008355243     
21.125000000000     1.077424049377     0.000008400160     
21.229999542236     1.082880020142     0.000008449299     
21.334999084473     1.088006019592     0.000008494983     
21.440000534058     1.093297958374     0.000008541436     
21.545000076294     1.098588943481     0.000008589807     
21.649999618530     1.103880047798     0.000008639331     
21.754999160767     1.109171032906     0.000008688854     
21.860000610352     1.114462018013     0.000008739913     
21.965000152588     1.119588017464     0.000008791740     
22.069999694824     1.124879002571     0.000008844334     
22.174999237061     1.130170941353     0.000008898464     
22.280000686646     1.135462045670     0.000008953746     
22.385000228882     1.140588045120     0.000009010180     
22.489999771118     1.146044015884     0.000009068149     
22.594999313354     1.151170015335     0.000009126886     
22.700000762939     1.156461000443     0.000009189078     
22.805000305176     1.161753058434     0.000009250503     
22.909999847412     1.166877985001     0.000009314614     
23.014999389648     1.172335028648     0.000009381413     
23.120000839233     1.177461028099     0.000009448212     
23.225000381470     1.182752013206     0.000009516931     
23.274999618530     1.192342042923     0.000009747079     
23.379999160767     1.197468042374     0.000009815694     
23.485000610352     1.195814967155     0.000009663217     
23.590000152588     1.190523982048     0.000009434502     
23.694999694824     1.185232043266     0.000009221034     
23.799999237061     1.179941058159     0.000009026627     
23.905000686646     1.174649953842     0.000008843654     
24.010000228882     1.169523954391     0.000008675930     
24.114999771118     1.164232969284     0.000008519641     
24.219999313354     1.158941984177     0.000008374788     
24.325000762939     1.153650045395     0.000008233747     
24.430000305176     1.148358941078     0.000008104142     
24.534999847412     1.143232941628     0.000007978349     
24.639999389648     1.137776970863     0.000007860179     
24.745000839233     1.132650971413     0.000007749633     
24.850000381470     1.127359986305     0.000007642900     
24.954999923706     1.122068047523     0.000007536166     
25.059999465942     1.116776943207     0.000007437056     
25.165000915527     1.111650943756     0.000007345570     
25.270000457764     1.106359958649     0.000007254084     
25.375000000000     1.101068973541     0.000007162598     
25.479999542236     1.095777988434     0.000007074924     
25.584999084473     1.090487003326     0.000006991061     
25.690000534058     1.085194945335     0.000006907199     
25.795000076294     1.080068945885     0.000006827149     
25.899999618530     1.074777960777     0.000006750910     
26.004999160767     1.069486975670     0.000006678484     
26.110000610352     1.064195990562     0.000006606057     
26.215000152588     1.058905005455     0.000006533631     
26.319999694824     1.053612947464     0.000006461204     
26.424999237061     1.048321962357     0.000006392590     
26.530000686646     1.043195962906     0.000006323975     
26.635000228882     1.037904977798     0.000006259173     
26.739999771118     1.032613992691     0.000006194370     
26.844999313354     1.027487993240     0.000006125755     
26.950000762939     1.022030949593     0.000006064765     
27.055000305176     1.016739964485     0.000005999962     
27.159999847412     1.011448979378     0.000005938971     
27.264999389648     1.006322979927     0.000005881793     
27.370000839233     1.001031994820     0.000005820802     
27.475000381470     0.995741009712     0.000005759811     
27.579999923706     0.990449011326     0.000005702632     
27.684999465942     0.985158026218     0.000005645454     
27.790000915527     0.980032026768     0.000005584463     
27.895000457764     0.974740982056     0.000005527284     
28.000000000000     0.969449996948     0.000005473917     
28.104999542236     0.964159011841     0.000005412926     
28.209999084473     0.958868026733     0.000005359560     
28.315000534058     0.953576028347     0.000005306193     
28.420000076294     0.948284983635     0.000005252826     
28.524999618530     0.942993998528     0.000005195647     
28.629999160767     0.937867999077     0.000005142280     
28.735000610352     0.932577013969     0.000005088913     
28.840000152588     0.927286028862     0.000005035546     
28.944999694824     0.921993970871     0.000004982179     
29.049999237061     0.916702985764     0.000004928813     
29.155000686646     0.911576986313     0.000004875446     
29.260000228882     0.906286001205     0.000004825891     
29.364999771118     0.900995016098     0.000004772524     
29.469999313354     0.895703971386     0.000004722969     
29.575000762939     0.890411973000     0.000004669602     
29.680000305176     0.885286986828     0.000004620047     
29.784999847412     0.879830002785     0.000004570492     
29.889999389648     0.874704003334     0.000004520937     
29.995000839233     0.869413018227     0.000004467570     
30.100000381470     0.864121973515     0.000004418015     
30.204999923706     0.858829975128     0.000004368460     
30.309999465942     0.853538990021     0.000004318905     
30.415000915527     0.848248004913     0.000004269350     
30.520000457764     0.842957019806     0.000004219795     
30.625000000000     0.837665975094     0.000004170240     
30.729999542236     0.832539975643     0.000004120686     
30.834999084473     0.827248990536     0.000004067319     
30.940000534058     0.821956992149     0.000004021576     
31.045000076294     0.816666007042     0.000003972021     
31.149999618530     0.811540007591     0.000003926278     
31.254999160767     0.806249022484     0.000003876723     
31.360000610352     0.800957977772     0.000003827168     
31.465000152588     0.795666992664     0.000003777613     
31.569999694824     0.790374994278     0.000003728058     
31.674999237061     0.785084009171     0.000003682315     
31.780000686646     0.779793024063     0.000003632760     
31.829999923706     0.770699024200     0.000003460877     
31.934999465942     0.765407025814     0.000003412505     
32.040000915527     0.760115981102     0.000003364901     
32.145000457764     0.754824995995     0.000003317297     
32.250000000000     0.749534010887     0.000003268926     
32.354999542236     0.744243025780     0.000003220170     
32.459999084473     0.739117026329     0.000003171414     
32.564998626709     0.733825981617     0.000003121507     
32.669998168945     0.728533983231     0.000003072752     
32.775001525879     0.723242998123     0.000003025148     
32.880001068115     0.717952013016     0.000002975624     
32.985000610352     0.712826013565     0.000002925717     
33.090000152588     0.707369029522     0.000002877345     
33.194999694824     0.702243983746     0.000002828974     
33.299999237061     0.696951985359     0.000002779834     
33.404998779297     0.691661000252     0.000002732998     
33.509998321533     0.686370015144     0.000002687314     
33.615001678467     0.681244015694     0.000002641630     
33.720001220703     0.675952970982     0.000002596329     
33.825000762939     0.670661985874     0.000002554484     
33.930000305176     0.665205001831     0.000002514558     
34.034999847412     0.660079002380     0.000002477320     
34.139999389648     0.654788017273     0.000002442768     
34.244998931885     0.649496972561     0.000002411288     
34.349998474121     0.644370973110     0.000002380960     
34.455001831055     0.639079988003     0.000002353703     
34.560001373291     0.633787989616     0.000002329133     
34.665000915527     0.628497004509     0.000002305332     
34.770000457764     0.623206019402     0.000002281146     
34.875000000000     0.617914974689     0.000002256960     
34.979999542236     0.612623989582     0.000002230855     
35.084999084473     0.607497990131     0.000002203214     
35.189998626709     0.602207005024     0.000002174805     
