
Cycle 1
Physical Cycle 1
Step 1

Time (s),          Potential (V),         Current (A)
0.104999996722     0.002808999969     -0.000005713233     
0.209999993443     0.007931999862     -0.000004493080     
0.314999997616     0.013220000081     -0.000003929047     
0.419999986887     0.018508000299     -0.000003533840     
0.524999976158     0.023795999587     -0.000003223046     
0.629999995232     0.029084000736     -0.000002969807     
0.735000014305     0.034371998161     -0.000002751100     
0.795000016689     0.042964998633     -0.000002371458     
0.899999976158     0.048252999783     -0.000002209120     
1.004999995232     0.053541999310     -0.000002058734     
1.110000014305     0.058830000460     -0.000001918375     
1.215000033379     0.063951998949     -0.000001787656     
1.320000052452     0.069239996374     -0.000001665034     
1.424999952316     0.074528001249     -0.000001547039     
1.529999971390     0.079816997051     -0.000001435214     
1.634999990463     0.084939002991     -0.000001328402     
1.740000009537     0.090227000415     -0.000001225446     
1.845000028610     0.095680996776     -0.000001125961     
1.950000047684     0.100803002715     -0.000001030717     
2.055000066757     0.106091998518     -0.000000937015     
2.160000085831     0.111213997006     -0.000000846399     
2.265000104904     0.116502001882     -0.000000759252     
2.369999885559     0.121789999306     -0.000000674034     
2.474999904633     0.127077996731     -0.000000589973     
2.579999923706     0.132366999984     -0.000000508610     
2.684999942780     0.137655004859     -0.000000429562     
2.789999961853     0.142776995897     -0.000000351284     
2.894999980927     0.148230999708     -0.000000274935     
3.000000000000     0.153353005648     -0.000000200899     
3.105000019073     0.158641993999     -0.000000127635     
3.130000114441     0.168887004256     0.000000016842     
3.234999895096     0.174174994230     0.000000083111     
3.339999914169     0.179297998548     0.000000148789     
3.444999933243     0.184586003423     0.000000211428     
3.549999952316     0.189708992839     0.000000271155     
3.654999971390     0.194996997714     0.000000328434     
3.759999990463     0.200285002589     0.000000383939     
3.865000009537     0.205408006907     0.000000434549     
3.970000028610     0.210695996881     0.000000481444     
4.074999809265     0.215819001198     0.000000525511     
4.179999828339     0.221107006073     0.000000565399     
4.284999847412     0.226394996047     0.000000599673     
4.389999866486     0.231683000922     0.000000630149     
4.494999885559     0.236971005797     0.000000655474     
4.599999904633     0.242093995214     0.000000675186     
4.704999923706     0.247547000647     0.000000690171     
4.809999942780     0.252669990063     0.000000700976     
4.914999961853     0.257957994938     0.000000705071     
5.019999980927     0.263245999813     0.000000705535     
5.125000000000     0.268534004688     0.000000702707     
5.230000019073     0.273822009563     0.000000695405     
5.335000038147     0.279110014439     0.000000684388     
5.440000057220     0.284233003855     0.000000672316     
5.545000076294     0.289521008730     0.000000657627     
5.650000095367     0.294809013605     0.000000641630     
5.755000114441     0.300096988678     0.000000625548     
5.860000133514     0.305384993553     0.000000608959     
5.965000152588     0.310672998428     0.000000591400     
6.070000171661     0.315961003304     0.000000575149     
6.175000190735     0.321249008179     0.000000560038     
6.280000209808     0.326537013054     0.000000543999     
6.385000228882     0.331824988127     0.000000528761     
6.489999771118     0.337112993002     0.000000515634     
6.594999790192     0.342236012220     0.000000502844     
6.699999809265     0.347689002752     0.000000490435     
6.804999828339     0.352811992168     0.000000479207     
6.909999847412     0.358099997044     0.000000468781     
7.014999866486     0.363388001919     0.000000458651     
7.119999885559     0.368676006794     0.000000449998     
7.224999904633     0.373964011669     0.000000441809     
7.329999923706     0.379251986742     0.000000433494     
7.434999942780     0.384539991617     0.000000426107     
7.539999961853     0.389829009771     0.000000420240     
7.644999980927     0.394950985909     0.000000414162     
7.750000000000     0.400404989719     0.000000407661     
7.855000019073     0.405526995659     0.000000402892     
7.960000038147     0.410815000534     0.000000398291     
8.064999580383     0.416103988886     0.000000393521     
8.170000076294     0.421391993761     0.000000390018     
8.274999618530     0.426513999701     0.000000386345     
8.380000114441     0.431968003511     0.000000382589     
8.484999656677     0.437256008387     0.000000379845     
8.590000152588     0.442544013262     0.000000377819     
8.694999694824     0.447667002678     0.000000374780     
8.800000190735     0.452955007553     0.000000372374     
8.904999732971     0.458243012428     0.000000370897     
9.010000228882     0.463530987501     0.000000369462     
9.114999771118     0.468818992376     0.000000367478     
9.220000267029     0.474106997252     0.000000366549     
9.324999809265     0.479395002127     0.000000365578     
9.430000305176     0.484517991543     0.000000364481     
9.534999847412     0.489805996418     0.000000364439     
9.640000343323     0.495094001293     0.000000364354     
9.744999885559     0.500382006168     0.000000363130     
9.850000381470     0.505670011044     0.000000363003     
9.954999923706     0.510958015919     0.000000364101     
10.060000419617     0.516246020794     0.000000364101     
10.164999961853     0.521368980408     0.000000363763     
10.270000457764     0.526656985283     0.000000364987     
10.375000000000     0.531944990158     0.000000366000     
10.479999542236     0.537232995033     0.000000366971     
10.585000038147     0.542520999908     0.000000368406     
10.689999580383     0.547809004784     0.000000370010     
10.795000076294     0.553097009659     0.000000371488     
10.899999618530     0.558385014534     0.000000374062     
11.005000114441     0.563507974148     0.000000377101     
11.109999656677     0.568795979023     0.000000379001     
11.215000152588     0.574083983898     0.000000381618     
11.319999694824     0.579371988773     0.000000385670     
11.425000190735     0.584659993649     0.000000389384     
11.529999732971     0.589783012867     0.000000392888     
11.635000228882     0.595236003399     0.000000397320     
11.739999771118     0.600359022617     0.000000402258     
11.845000267029     0.605647027493     0.000000406817     
11.949999809265     0.610934972763     0.000000412558     
12.055000305176     0.616222977638     0.000000418383     
12.159999847412     0.621510982513     0.000000423574     
12.265000343323     0.626634001732     0.000000429779     
12.369999885559     0.631922006607     0.000000437250     
12.475000381470     0.637210011482     0.000000443497     
12.579999923706     0.642498016357     0.000000449829     
12.685000419617     0.647786021233     0.000000457553     
12.789999961853     0.652908980846     0.000000465151     
12.895000457764     0.658361971378     0.000000472538     
13.000000000000     0.663484990597     0.000000480642     
13.104999542236     0.668772995472     0.000000488493     
13.210000038147     0.674061000347     0.000000496259     
13.314999580383     0.679349005222     0.000000504955     
13.420000076294     0.684472024441     0.000000513903     
13.524999618530     0.689925014973     0.000000521712     
13.630000114441     0.695047974586     0.000000530027     
13.734999656677     0.700335979462     0.000000539440     
13.840000152588     0.705623984337     0.000000548304     
13.944999694824     0.710911989212     0.000000556408     
14.050000190735     0.716199994087     0.000000565779     
14.154999732971     0.721487998962     0.000000574896     
14.260000228882     0.726611018181     0.000000583634     
14.364999771118     0.731899023056     0.000000593215     
14.470000267029     0.737187027931     0.000000602375     
14.574999809265     0.742474973202     0.000000610690     
14.680000305176     0.747762978077     0.000000620060     
14.784999847412     0.752885997295     0.000000630022     
14.890000343323     0.758340001106     0.000000638970     
14.994999885559     0.763462007046     0.000000647455     
15.100000381470     0.768750011921     0.000000657289     
15.204999923706     0.774038016796     0.000000666998     
15.310000419617     0.779160976410     0.000000676157     
15.414999961853     0.784448981285     0.000000685654     
15.520000457764     0.789736986160     0.000000695236     
15.625000000000     0.795024991035     0.000000704311     
15.729999542236     0.800312995911     0.000000714484     
15.835000038147     0.805602014065     0.000000724614     
15.939999580383     0.810890018940     0.000000733605     
16.045000076294     0.816012024879     0.000000743102     
16.149999618530     0.821300029755     0.000000753739     
16.254999160767     0.826588988304     0.000000763573     
16.360000610352     0.831876993179     0.000000772817     
16.465000152588     0.837164998055     0.000000783074     
16.569999694824     0.842287003994     0.000000793162     
16.674999237061     0.847575008869     0.000000803040     
16.780000686646     0.852864027023     0.000000813508     
16.885000228882     0.858151972294     0.000000823680     
16.989999771118     0.863439977169     0.000000833219     
17.094999313354     0.868561983109     0.000000843603     
17.200000762939     0.873849987984     0.000000854915     
17.305000305176     0.879139006138     0.000000864455     
17.409999847412     0.884427011013     0.000000874247     
17.514999389648     0.889715015888     0.000000885011     
17.620000839233     0.895003020763     0.000000895394     
17.725000381470     0.900291025639     0.000000905482     
17.829999923706     0.905578970909     0.000000915866     
17.934999465942     0.910701990128     0.000000926461     
18.040000915527     0.915989995003     0.000000936591     
18.145000457764     0.921277999878     0.000000947481     
18.250000000000     0.926566004753     0.000000958287     
18.354999542236     0.931689023972     0.000000968037     
18.459999084473     0.936977028847     0.000000978590     
18.565000534058     0.942264974117     0.000000990197     
18.670000076294     0.947552978992     0.000001000834     
18.774999618530     0.952840983868     0.000001011007     
18.879999160767     0.958128988743     0.000001022446     
18.985000610352     0.963252007961     0.000001033716     
19.024999618530     0.973496973515     0.000001051154     
19.129999160767     0.978619992733     0.000001061951     
19.235000610352     0.983907997608     0.000001072748     
19.340000152588     0.989196002483     0.000001084701     
19.444999694824     0.994484007359     0.000001097426     
19.549999237061     0.999772012234     0.000001108609     
19.655000686646     1.004894971848     0.000001120562     
19.760000228882     1.010347962379     0.000001133673     
19.864999771118     1.015635967255     0.000001147169     
19.969999313354     1.020758986473     0.000001159508     
20.075000762939     1.026046991348     0.000001173004     
20.180000305176     1.031334996223     0.000001186886     
20.284999847412     1.036623001099     0.000001200768     
20.389999389648     1.041911005974     0.000001215035     
20.495000839233     1.047199010849     0.000001230074     
20.600000381470     1.052322030067     0.000001243955     
20.704999923706     1.057610034943     0.000001258994     
20.809999465942     1.062898039818     0.000001275575     
20.915000915527     1.068186044693     0.000001290999     
21.020000457764     1.073474049568     0.000001306809     
21.125000000000     1.078762054443     0.000001323775     
21.229999542236     1.084050059319     0.000001341127     
21.334999084473     1.089172959328     0.000001358094     
21.440000534058     1.094460964203     0.000001376217     
21.545000076294     1.099748969078     0.000001394726     
21.649999618530     1.105036973953     0.000001412849     
21.754999160767     1.110326051712     0.000001432515     
21.860000610352     1.115614056587     0.000001452567     
21.965000152588     1.120736002922     0.000001472232     
22.069999694824     1.126024007797     0.000001492669     
22.174999237061     1.131312012672     0.000001515034     
22.280000686646     1.136600971222     0.000001537014     
22.385000228882     1.141888976097     0.000001558993     
22.489999771118     1.147176980972     0.000001582515     
22.594999313354     1.152464985847     0.000001606808     
22.700000762939     1.157587051392     0.000001631101     
22.805000305176     1.162876009941     0.000001656936     
22.909999847412     1.168164014816     0.000001683157     
23.014999389648     1.173452019691     0.000001709764     
23.120000839233     1.178740024567     0.000001736756     
23.225000381470     1.184028029442     0.000001766833     
23.329999923706     1.189316034317     0.000001795753     
23.434999465942     1.194439053535     0.000001825445     
23.540000915527     1.198570013046     0.000001835470     
23.645000457764     1.194934010506     0.000001730586     
23.750000000000     1.189646005630     0.000001624545     
23.854999542236     1.184358000755     0.000001529687     
23.959999084473     1.179234981537     0.000001443312     
24.065000534058     1.173946976662     0.000001364263     
24.170000076294     1.168658971786     0.000001292541     
24.274999618530     1.163370966911     0.000001226989     
24.379999160767     1.158082962036     0.000001164907     
24.485000610352     1.152794957161     0.000001108609     
24.590000152588     1.147672057152     0.000001057323     
24.694999694824     1.142384052277     0.000001009123     
24.799999237061     1.137096047401     0.000000963236     
24.905000686646     1.131808042526     0.000000921977     
25.010000228882     1.126520037651     0.000000883416     
25.114999771118     1.121232032776     0.000000846399     
25.219999313354     1.116109013557     0.000000812851     
25.325000762939     1.110656023026     0.000000781232     
25.430000305176     1.105533003807     0.000000750769     
25.534999847412     1.100244998932     0.000000723006     
25.639999389648     1.094956994057     0.000000697170     
25.745000839233     1.089668989182     0.000000671720     
25.850000381470     1.084380984306     0.000000647813     
25.954999923706     1.079257965088     0.000000626605     
26.059999465942     1.073969960213     0.000000605397     
26.165000915527     1.068681955338     0.000000585345     
26.270000457764     1.063393950462     0.000000566836     
26.375000000000     1.058105945587     0.000000549099     
26.479999542236     1.052817940712     0.000000532132     
26.584999084473     1.047695040703     0.000000516322     
26.690000534058     1.042407035828     0.000000501284     
26.795000076294     1.036954045296     0.000000486245     
26.899999618530     1.031831026077     0.000000472364     
27.004999160767     1.026543021202     0.000000460024     
27.110000610352     1.021255016327     0.000000447299     
27.215000152588     1.015967011452     0.000000434189     
27.319999694824     1.010679006577     0.000000423392     
27.424999237061     1.005555987358     0.000000412595     
27.530000686646     1.000267982483     0.000000401413     
27.635000228882     0.994979977608     0.000000391387     
27.739999771118     0.989691972733     0.000000382133     
27.844999313354     0.984404027462     0.000000372107     
27.950000762939     0.979281008244     0.000000363238     
28.055000305176     0.973828017712     0.000000355140     
28.159999847412     0.968704998493     0.000000345886     
28.229999542236     0.960442006588     0.000000341097     
28.334999084473     0.955154001713     0.000000333879     
28.440000534058     0.949865996838     0.000000327041     
28.545000076294     0.944577991962     0.000000319316     
28.649999618530     0.939454972744     0.000000311592     
28.754999160767     0.934167027473     0.000000305176     
28.860000610352     0.928879022598     0.000000298887     
28.965000152588     0.923591017723     0.000000292091     
29.069999694824     0.918303012848     0.000000286182     
29.174999237061     0.913015007973     0.000000280146     
29.280000686646     0.907727003098     0.000000273772     
29.385000228882     0.902603983879     0.000000268623     
29.489999771118     0.897315979004     0.000000263346     
29.594999313354     0.892027974129     0.000000256973     
29.700000762939     0.886740028858     0.000000251570     
29.805000305176     0.881452023983     0.000000246969     
29.909999847412     0.876164019108     0.000000241735     
30.014999389648     0.870876014233     0.000000235868     
30.120000839233     0.865752995014     0.000000231351     
30.225000381470     0.860464990139     0.000000226413     
30.329999923706     0.855176985264     0.000000221432     
30.434999465942     0.849888980389     0.000000217042     
30.540000915527     0.844766020775     0.000000212568     
30.645000457764     0.839478015900     0.000000207503     
30.750000000000     0.834025025368     0.000000203324     
30.854999542236     0.828902006149     0.000000199736     
30.959999084473     0.823614001274     0.000000194671     
31.065000534058     0.818325996399     0.000000190197     
31.170000076294     0.813037991524     0.000000186609     
31.274999618530     0.807749986649     0.000000182937     
31.379999160767     0.802627027035     0.000000178252     
31.485000610352     0.797339022160     0.000000174326     
31.590000152588     0.792051017284     0.000000170569     
31.694999694824     0.786763012409     0.000000166475     
31.799999237061     0.781475007534     0.000000163140     
31.905000686646     0.776187002659     0.000000159553     
32.009998321533     0.771063983440     0.000000155036     
32.115001678467     0.765775978565     0.000000151280     
32.220001220703     0.760487973690     0.000000148114     
32.325000762939     0.755200028419     0.000000144484     
32.430000305176     0.749912023544     0.000000140221     
32.534999847412     0.744624018669     0.000000137097     
32.639999389648     0.739500999451     0.000000133805     
32.744998931885     0.734212994576     0.000000130259     
32.849998474121     0.728924989700     0.000000126925     
32.955001831055     0.723636984825     0.000000123801     
33.060001373291     0.718348979950     0.000000120424     
33.165000915527     0.713060975075     0.000000117259     
33.270000457764     0.707772970200     0.000000114684     
33.375000000000     0.702650010586     0.000000110800     
33.479999542236     0.697362005711     0.000000107593     
33.584999084473     0.692074000835     0.000000104300     
33.689998626709     0.686785995960     0.000000102949     
33.794998168945     0.681497991085     0.000000098475     
33.900001525879     0.676209986210     0.000000094001     
34.005001068115     0.670921027660     0.000000090666     
34.110000610352     0.665799021721     0.000000085897     
34.215000152588     0.660511016846     0.000000083449     
34.319999694824     0.655223011971     0.000000081338     
34.424999237061     0.649935007095     0.000000077792     
34.529998779297     0.644645988941     0.000000075218     
34.634998321533     0.639357984066     0.000000072685     
34.740001678467     0.634069979191     0.000000069477     
34.845001220703     0.628947973251     0.000000065678     
34.950000762939     0.623494029045     0.000000062386     
35.055000305176     0.618371009827     0.000000059178     
35.159999847412     0.613083004951     0.000000055928     
35.264999389648     0.607795000076     0.000000053395     
