
Cycle 1
Physical Cycle 1
Step 1

Time (s),          Potential (V),         Current (A)
0.104999996722     0.002485000063     -0.000001092895     
0.209999993443     0.007786000147     -0.000000706942     
0.314999997616     0.013086999767     -0.000000599946     
0.419999986887     0.018387999386     -0.000000531162     
0.449999988079     0.028326999396     -0.000000462947     
0.555000007153     0.033628001809     -0.000000427099     
0.660000026226     0.038929000497     -0.000000395876     
0.764999985695     0.044229999185     -0.000000367736     
0.870000004768     0.049531001598     -0.000000341910     
0.975000023842     0.054666001350     -0.000000318011     
1.080000042915     0.059967000037     -0.000000297581     
1.105000019073     0.070404000580     -0.000000260649     
1.210000038147     0.075704999268     -0.000000242206     
1.315000057220     0.081004999578     -0.000000225400     
1.419999957085     0.086140997708     -0.000000210108     
1.524999976158     0.091441996396     -0.000000194521     
1.629999995232     0.096577003598     -0.000000179648     
1.735000014305     0.101878002286     -0.000000166078     
1.840000033379     0.107179000974     -0.000000152003     
1.945000052452     0.112479999661     -0.000000138349     
2.049999952316     0.117780998349     -0.000000126081     
2.154999971390     0.123081997037     -0.000000114528     
2.259999990463     0.128216996789     -0.000000102470     
2.365000009537     0.133352994919     -0.000000090622     
2.470000028610     0.138818994164     -0.000000079657     
2.575000047684     0.143955007195     -0.000000068103     
2.680000066757     0.149256005883     -0.000000056970     
2.785000085831     0.154556006193     -0.000000046971     
2.890000104904     0.159857004881     -0.000000036930     
2.994999885559     0.164993003011     -0.000000026132     
3.099999904633     0.170294001698     -0.000000015881     
3.204999923706     0.175595000386     -0.000000006134     
3.309999942780     0.180730000138     0.000000004159     
3.420000076294     0.186693996191     0.000000014751     
3.525000095367     0.191828995943     0.000000024645     
3.630000114441     0.197129994631     0.000000033780     
3.734999895096     0.202264994383     0.000000043215     
3.839999914169     0.207401007414     0.000000053400     
3.944999933243     0.212702006102     0.000000062843     
4.050000190735     0.217837005854     0.000000071993     
4.155000209808     0.223138004541     0.000000081958     
4.244999885559     0.230591997504     0.000000097638     
4.349999904633     0.235892996192     0.000000107175     
4.454999923706     0.241193994880     0.000000116628     
4.559999942780     0.246494993567     0.000000126754     
4.664999961853     0.251630991697     0.000000137047     
4.769999980927     0.256931990385     0.000000146584     
4.875000000000     0.262232005596     0.000000157003     
4.980000019073     0.267533004284     0.000000168473     
5.085000038147     0.272668987513     0.000000179312     
5.190000057220     0.277969986200     0.000000189857     
5.295000076294     0.283271014690     0.000000201243     
5.400000095367     0.288406014442     0.000000212628     
5.505000114441     0.293707013130     0.000000223930     
5.610000133514     0.299008011818     0.000000236282     
5.715000152588     0.304309010506     0.000000249180     
5.820000171661     0.309610009193     0.000000261363     
5.925000190735     0.314745008945     0.000000273505     
6.030000209808     0.320046007633     0.000000286739     
6.135000228882     0.325347006321     0.000000300310     
6.239999771118     0.330482989550     0.000000313712     
6.344999790192     0.335949003696     0.000000328038     
6.449999809265     0.341084003448     0.000000342491     
6.554999828339     0.346219986677     0.000000356019     
6.659999847412     0.351520985365     0.000000370387     
6.764999866486     0.356822013855     0.000000385764     
6.869999885559     0.362123012543     0.000000400931     
6.974999904633     0.367424011230     0.000000416098     
7.079999923706     0.372725009918     0.000000432315     
7.184999942780     0.377860009670     0.000000448700     
7.289999961853     0.383161008358     0.000000464371     
7.394999980927     0.388296008110     0.000000480882     
7.500000000000     0.393597006798     0.000000498569     
7.605000019073     0.398898005486     0.000000516047     
7.710000038147     0.404199004173     0.000000533356     
7.815000057220     0.409334003925     0.000000551590     
7.920000076294     0.414635002613     0.000000570076     
8.024999618530     0.419936001301     0.000000588225     
8.130000114441     0.425236999989     0.000000607341     
8.234999656677     0.430373013020     0.000000627424     
8.340000152588     0.435674011707     0.000000646960     
8.444999694824     0.440975010395     0.000000666286     
8.550000190735     0.446276009083     0.000000686620     
8.654999732971     0.451411008835     0.000000707249     
8.760000228882     0.456712007523     0.000000727793     
8.864999771118     0.461847007275     0.000000749766     
8.970000267029     0.467314004898     0.000000772075     
9.074999809265     0.472449004650     0.000000793627     
9.180000305176     0.477750003338     0.000000815600     
9.284999847412     0.482885003090     0.000000838666     
9.390000343323     0.488186001778     0.000000862361     
9.494999885559     0.493487000465     0.000000885930     
9.600000381470     0.498787999153     0.000000910802     
9.704999923706     0.503924012184     0.000000935968     
9.810000419617     0.509225010872     0.000000960209     
9.914999961853     0.514526009560     0.000000985459     
10.020000457764     0.519661009312     0.000001011886     
10.055000305176     0.529932022095     0.000001070059     
10.159999847412     0.535233020782     0.000001096656     
10.265000343323     0.540534019470     0.000001123639     
10.369999885559     0.545669019222     0.000001150622     
10.475000381470     0.551136016846     0.000001178376     
10.579999923706     0.556436002254     0.000001206129     
10.685000419617     0.561737000942     0.000001233498     
10.789999961853     0.566873013973     0.000001260866     
10.895000457764     0.572174012661     0.000001288234     
11.000000000000     0.577475011349     0.000001314446     
11.104999542236     0.582610011101     0.000001340272     
11.210000038147     0.587911009789     0.000001366484     
11.314999580383     0.593212008476     0.000001391539     
11.420000076294     0.598513007164     0.000001415438     
11.524999618530     0.603814005852     0.000001438952     
11.630000114441     0.608949005604     0.000001461695     
11.734999656677     0.614250004292     0.000001483281     
11.840000152588     0.619551002979     0.000001504482     
11.944999694824     0.624852001667     0.000001525682     
12.050000190735     0.630153000355     0.000001545341     
12.154999732971     0.635288000107     0.000001563458     
12.260000228882     0.640588998795     0.000001581961     
12.364999771118     0.645889997482     0.000001600463     
12.470000267029     0.651026010513     0.000001617038     
12.574999809265     0.656327009201     0.000001634770     
12.680000305176     0.661628007889     0.000001650959     
12.784999847412     0.666929006577     0.000001666378     
12.890000343323     0.672064006329     0.000001681411     
12.994999885559     0.677531003952     0.000001696830     
13.100000381470     0.682666003704     0.000001712249     
13.204999923706     0.687967002392     0.000001726126     
13.310000419617     0.693268001080     0.000001741930     
13.414999961853     0.698568999767     0.000001755807     
13.520000457764     0.703703999519     0.000001769298     
13.625000000000     0.709004998207     0.000001782790     
13.729999542236     0.714305996895     0.000001797052     
13.835000038147     0.719606995583     0.000001810158     
13.939999580383     0.724907994270     0.000001823649     
14.045000076294     0.730208992958     0.000001836755     
14.149999618530     0.735343992710     0.000001849861     
14.255000114441     0.740644991398     0.000001861810     
14.359999656677     0.745945990086     0.000001874531     
14.465000152588     0.751082003117     0.000001888408     
14.569999694824     0.756383001804     0.000001900357     
14.675000190735     0.761684000492     0.000001912307     
14.779999732971     0.766984999180     0.000001924256     
14.885000228882     0.772284984589     0.000001936977     
14.989999771118     0.777420997620     0.000001949312     
15.095000267029     0.782721996307     0.000001962032     
15.199999809265     0.788022994995     0.000001974367     
15.305000305176     0.793323993683     0.000001986702     
15.409999847412     0.798624992371     0.000001998652     
15.515000343323     0.803759992123     0.000002011372     
15.619999885559     0.809060990810     0.000002024092     
15.725000381470     0.814361989498     0.000002037198     
15.829999923706     0.819662988186     0.000002050690     
15.935000419617     0.824963986874     0.000002064181     
16.040000915527     0.830098986626     0.000002077673     
16.145000457764     0.835399985313     0.000002091164     
16.250000000000     0.840534985065     0.000002106197     
16.354999542236     0.846001982689     0.000002120459     
16.459999084473     0.851136982441     0.000002135107     
16.565000534058     0.856437981129     0.000002150911     
16.670000076294     0.861738979816     0.000002167101     
16.774999618530     0.867039978504     0.000002182905     
16.879999160767     0.872175991535     0.000002199095     
16.985000610352     0.877476990223     0.000002216441     
17.090000152588     0.882942974567     0.000002233787     
17.194999694824     0.888078987598     0.000002252290     
17.299999237061     0.893379986286     0.000002270792     
17.405000686646     0.898514986038     0.000002288524     
17.510000228882     0.903815984726     0.000002307797     
17.614999771118     0.909116983414     0.000002327456     
17.719999313354     0.914417982101     0.000002348271     
17.825000762939     0.919718980789     0.000002368701     
17.930000305176     0.924853980541     0.000002389131     
18.034999847412     0.930154979229     0.000002411488     
18.139999389648     0.935455977917     0.000002432689     
18.245000839233     0.940590977669     0.000002455817     
18.350000381470     0.945891976357     0.000002478174     
18.454999923706     0.951192975044     0.000002502458     
18.559999465942     0.956493973732     0.000002525586     
18.665000915527     0.961794972420     0.000002549100     
18.770000457764     0.967095971107     0.000002574541     
18.875000000000     0.972231984138     0.000002600753     
18.979999542236     0.977532982826     0.000002625808     
19.084999084473     0.982833027840     0.000002652791     
19.190000534058     0.987968981266     0.000002680159     
19.295000076294     0.993269979954     0.000002706756     
19.399999618530     0.998570978642     0.000002735666     
19.504999160767     1.003872036934     0.000002763420     
19.610000610352     1.009173035622     0.000002793101     
19.715000152588     1.014307975769     0.000002823168     
19.819999694824     1.019608974457     0.000002853620     
19.924999237061     1.024909973145     0.000002885613     
20.030000686646     1.030210971832     0.000002916836     
20.135000228882     1.035511970520     0.000002951528     
20.239999771118     1.040647029877     0.000002985835     
20.344999313354     1.045948028564     0.000003020527     
20.450000762939     1.051249027252     0.000003056761     
20.555000305176     1.056383967400     0.000003093381     
20.659999847412     1.061684966087     0.000003132313     
20.764999389648     1.066985964775     0.000003171631     
20.870000839233     1.072286963463     0.000003213261     
20.975000381470     1.077587962151     0.000003255277     
21.079999923706     1.082723975182     0.000003298064     
21.184999465942     1.088189959526     0.000003343549     
21.290000915527     1.093325972557     0.000003389035     
21.395000457764     1.098626971245     0.000003438760     
21.500000000000     1.103762030602     0.000003487329     
21.604999542236     1.109228968620     0.000003539753     
21.709999084473     1.114364027977     0.000003593718     
21.815000534058     1.119665026665     0.000003648455     
21.920000076294     1.124966025352     0.000003706275     
22.024999618530     1.130267024040     0.000003767179     
22.129999160767     1.135401964188     0.000003829239     
22.235000610352     1.140869021416     0.000003893612     
22.340000152588     1.146003961563     0.000003961069     
22.444999694824     1.151304960251     0.000004030839     
22.549999237061     1.156440019608     0.000004103307     
22.655000686646     1.161741018295     0.000004179244     
22.760000228882     1.167042016983     0.000004259807     
22.864999771118     1.172343015671     0.000004341141     
22.969999313354     1.177479028702     0.000004426329     
23.075000762939     1.182780027390     0.000004517299     
23.180000305176     1.188081026077     0.000004607884     
23.284999847412     1.193215966225     0.000004705793     
23.389999389648     1.198186039925     0.000004788669     
23.495000839233     1.195865988731     0.000004621376     
23.600000381470     1.190564990044     0.000004403972     
23.704999923706     1.185263991356     0.000004206227     
23.809999465942     1.179962992668     0.000004023900     
23.915000915527     1.174828052521     0.000003853524     
24.020000457764     1.169527053833     0.000003695867     
24.125000000000     1.164226055145     0.000003548233     
24.229999542236     1.159090995789     0.000003410235     
24.334999084473     1.153789997101     0.000003278791     
24.440000534058     1.148488998413     0.000003156212     
24.545000076294     1.143187999725     0.000003040957     
24.649999618530     1.138053059578     0.000002932641     
24.754999160767     1.132751941681     0.000002830106     
24.860000610352     1.127450942993     0.000002732197     
24.965000152588     1.122149944305     0.000002640456     
25.069999694824     1.117014050484     0.000002553726     
25.174999237061     1.111547946930     0.000002470464     
25.280000686646     1.106412053108     0.000002392985     
25.385000228882     1.101111054420     0.000002318590     
25.489999771118     1.095975995064     0.000002247278     
25.594999313354     1.090674996376     0.000002180978     
25.700000762939     1.085373997688     0.000002116605     
25.805000305176     1.080072999001     0.000002055701     
25.909999847412     1.074938058853     0.000001997495     
26.014999389648     1.069471001625     0.000001943144     
26.120000839233     1.064335942268     0.000001889564     
26.225000381470     1.059034943581     0.000001839068     
26.329999923706     1.053733944893     0.000001790884     
26.434999465942     1.048599004745     0.000001744243     
26.540000915527     1.043131947517     0.000001699914     
26.645000457764     1.037997007370     0.000001657512     
26.750000000000     1.032696008682     0.000001617038     
26.854999542236     1.027395009995     0.000001577335     
26.959999084473     1.022258996964     0.000001539559     
27.065000534058     1.016958951950     0.000001503711     
27.170000076294     1.011657953262     0.000001469019     
27.274999618530     1.006356954575     0.000001435097     
27.379999160767     1.001220941544     0.000001402718     
27.485000610352     0.995920002460     0.000001371495     
27.590000152588     0.990619003773     0.000001340658     
27.694999694824     0.985318005085     0.000001311362     
27.799999237061     0.980017006397     0.000001283994     
27.905000686646     0.974716007710     0.000001256240     
28.010000228882     0.969581007957     0.000001229257     
28.114999771118     0.964280009270     0.000001203046     
28.219999313354     0.959145009518     0.000001178376     
28.325000762939     0.953844010830     0.000001153706     
28.430000305176     0.948543012142     0.000001130192     
28.534999847412     0.943242013454     0.000001107450     
28.639999389648     0.937941014767     0.000001084321     
28.745000839233     0.932806015015     0.000001061964     
28.850000381470     0.927339017391     0.000001040764     
28.954999923706     0.922204017639     0.000001019948     
29.059999465942     0.916903018951     0.000000999133     
29.165000915527     0.911602020264     0.000000979860     
29.270000457764     0.906466007233     0.000000960201     
29.375000000000     0.901165008545     0.000000940927     
29.479999542236     0.895699024200     0.000000921269     
29.584999084473     0.890563011169     0.000000903922     
29.690000534058     0.885262012482     0.000000885805     
29.795000076294     0.879961013794     0.000000867303     
29.899999618530     0.874826014042     0.000000850342     
30.004999160767     0.869525015354     0.000000833382     
30.110000610352     0.864390015602     0.000000816421     
30.215000152588     0.859089016914     0.000000799846     
30.319999694824     0.853622019291     0.000000784427     
30.424999237061     0.848487019539     0.000000768238     
30.530000686646     0.843186020851     0.000000752434     
30.635000228882     0.837885022163     0.000000737400     
30.739999771118     0.832584023476     0.000000721982     
30.844999313354     0.827449023724     0.000000706563     
30.950000762939     0.822148025036     0.000000692686     
31.055000305176     0.817012012005     0.000000678809     
31.159999847412     0.811711013317     0.000000663776     
31.264999389648     0.806410014629     0.000000649128     
31.370000839233     0.801110029221     0.000000636022     
31.475000381470     0.795808970928     0.000000622145     
31.579999923706     0.790507972240     0.000000609039     
31.684999465942     0.785372018814     0.000000595934     
31.790000915527     0.780071020126     0.000000583213     
31.895000457764     0.774770021439     0.000000569336     
32.000000000000     0.769469022751     0.000000556230     
32.104999542236     0.764334022999     0.000000544666     
32.209999084473     0.759033024311     0.000000532331     
32.314998626709     0.753732025623     0.000000519611     
32.419998168945     0.748431026936     0.000000507661     
32.525001525879     0.743296027184     0.000000495712     
32.630001068115     0.737995028496     0.000000483377     
32.735000610352     0.732693970203     0.000000471813     
32.840000152588     0.727392971516     0.000000461020     
32.944999694824     0.722091972828     0.000000449456     
33.049999237061     0.716956973076     0.000000437506     
33.154998779297     0.711655974388     0.000000426328     
33.259998321533     0.706354975700     0.000000415535     
33.365001678467     0.701053977013     0.000000403970     
33.470001220703     0.695752978325     0.000000393177     
33.575000762939     0.690451979637     0.000000382770     
33.680000305176     0.685316026211     0.000000371591     
33.784999847412     0.680015027523     0.000000360798     
33.889999389648     0.674714028835     0.000000350390     
33.994998931885     0.669412970543     0.000000339597     
34.025001525879     0.659308016300     0.000000317577     
34.130001068115     0.654007971287     0.000000307200     
34.235000610352     0.648706972599     0.000000297075     
34.340000152588     0.643405973911     0.000000286823     
34.444999694824     0.638104975224     0.000000276278     
34.549999237061     0.632969021797     0.000000266447     
34.654998779297     0.627668023109     0.000000256826     
34.759998321533     0.622533023357     0.000000246197     
34.865001678467     0.617232024670     0.000000235483     
34.970001220703     0.611931025982     0.000000225484     
35.075000762939     0.606630027294     0.000000215275     
35.180000305176     0.601329028606     0.000000204898     
