
Cycle 1
Physical Cycle 1
Step 1

Time (s),          Potential (V),         Current (A)
0.104999996722     0.002641000086     -0.000001845374     
0.209999993443     0.007922000252     -0.000001711651     
0.314999997616     0.013203999959     -0.000001600852     
0.419999986887     0.018485000357     -0.000001505336     
0.449999988079     0.028552999720     -0.000001320610     
0.555000007153     0.033833999187     -0.000001243674     
0.660000026226     0.039115998894     -0.000001171738     
0.764999985695     0.044397000223     -0.000001102496     
0.870000004768     0.049513000995     -0.000001036715     
0.975000023842     0.054960001260     -0.000000974782     
1.080000042915     0.060075998306     -0.000000913233     
1.184999942780     0.065357998013     -0.000000853992     
1.289999961853     0.070638999343     -0.000000797828     
1.394999980927     0.075920999050     -0.000000740896     
1.500000000000     0.081036999822     -0.000000687040     
1.605000019073     0.086318001151     -0.000000636262     
1.710000038147     0.091765001416     -0.000000585484     
1.815000057220     0.096881002188     -0.000000536630     
1.919999957085     0.102163001895     -0.000000490853     
2.025000095367     0.107444003224     -0.000000444691     
2.130000114441     0.112726002932     -0.000000399299     
2.234999895096     0.118006996810     -0.000000355830     
2.339999914169     0.123288996518     -0.000000313515     
2.444999933243     0.128570005298     -0.000000270431     
2.549999952316     0.133686006069     -0.000000228885     
2.589999914169     0.143424004316     -0.000000151118     
2.694999933243     0.148540005088     -0.000000111614     
2.799999952316     0.153987005353     -0.000000072362     
2.904999971390     0.159103006124     -0.000000031932     
3.009999990463     0.164385005832     0.000000007825     
3.115000009537     0.169666007161     0.000000045731     
3.220000028610     0.174783006310     0.000000085698     
3.325000047684     0.180063992739     0.000000125371     
3.430000066757     0.185179993510     0.000000163277     
3.535000085831     0.190626993775     0.000000202907     
3.640000104904     0.195907995105     0.000000242328     
3.744999885559     0.201024994254     0.000000280781     
3.849999904633     0.206140995026     0.000000319822     
3.954999923706     0.211587995291     0.000000360000     
4.059999942780     0.216703996062     0.000000398747     
4.164999961853     0.221984997392     0.000000438378     
4.269999980927     0.227101996541     0.000000479271     
4.375000000000     0.232382997870     0.000000518859     
4.480000019073     0.237664997578     0.000000559037     
4.585000038147     0.242945998907     0.000000600729     
4.690000057220     0.248227998614     0.000000641664     
4.795000076294     0.253343999386     0.000000681884     
4.900000095367     0.258625000715     0.000000724417     
5.005000114441     0.263906985521     0.000000767161     
5.110000133514     0.269023001194     0.000000809148     
5.215000152588     0.274304986000     0.000000852985     
5.320000171661     0.279585987329     0.000000896865     
5.425000190735     0.284866988659     0.000000939735     
5.530000209808     0.290149003267     0.000000984583     
5.545000076294     0.301371991634     0.000001088647     
5.650000095367     0.306652992964     0.000001131347     
5.755000114441     0.311935007572     0.000001175585     
5.860000133514     0.317216008902     0.000001221362     
5.965000152588     0.322497993708     0.000001268678     
6.070000171661     0.327778995037     0.000001315609     
6.175000190735     0.333061009645     0.000001361771     
6.280000209808     0.338176995516     0.000001408702     
6.385000228882     0.343457996845     0.000001456018     
6.489999771118     0.348740011454     0.000001502949     
6.594999790192     0.354021012783     0.000001551803     
6.699999809265     0.359302997589     0.000001599888     
6.804999828339     0.364419013262     0.000001646819     
6.909999847412     0.369866013527     0.000001695674     
7.014999866486     0.374981999397     0.000001743759     
7.119999885559     0.380263000727     0.000001790690     
7.224999904633     0.385544985533     0.000001839160     
7.329999923706     0.390825986862     0.000001888399     
7.434999942780     0.396108001471     0.000001936099     
7.539999961853     0.401389002800     0.000001984569     
7.644999980927     0.406506001949     0.000002034193     
7.750000000000     0.411951988935     0.000002081894     
7.855000019073     0.417068004608     0.000002129209     
7.960000038147     0.422515004873     0.000002178064     
8.064999580383     0.427630990744     0.000002225380     
8.170000076294     0.432913005352     0.000002271541     
8.274999618530     0.438194006681     0.000002320011     
8.380000114441     0.443475991488     0.000002366558     
8.484999656677     0.448756992817     0.000002412335     
8.590000152588     0.454039007425     0.000002458881     
8.694999694824     0.459320008755     0.000002505812     
8.800000190735     0.464601010084     0.000002550820     
8.904999732971     0.469718009233     0.000002596597     
9.010000228882     0.474999010563     0.000002643528     
9.114999771118     0.480280995369     0.000002687381     
9.220000267029     0.485561996698     0.000002732004     
9.324999809265     0.490844011307     0.000002776627     
9.430000305176     0.496125012636     0.000002818942     
9.534999847412     0.501406013966     0.000002860873     
9.640000343323     0.506523013115     0.000002904342     
9.744999885559     0.511968970299     0.000002946272     
9.850000381470     0.517086029053     0.000002987048     
9.954999923706     0.522367000580     0.000003031286     
10.060000419617     0.527648985386     0.000003072447     
10.164999961853     0.532930016518     0.000003112839     
10.270000457764     0.538210988045     0.000003153615     
10.375000000000     0.543492972851     0.000003193237     
10.479999542236     0.548774003983     0.000003231705     
10.585000038147     0.553891003132     0.000003271712     
10.689999580383     0.559171974659     0.000003310565     
10.795000076294     0.564454019070     0.000003348648     
10.899999618530     0.569899976254     0.000003389424     
11.005000114441     0.575016021729     0.000003429431     
11.109999656677     0.580298006535     0.000003467130     
11.215000152588     0.585578978062     0.000003505598     
11.319999694824     0.590861022472     0.000003543297     
11.425000190735     0.596141993999     0.000003579072     
11.529999732971     0.601423978806     0.000003617155     
11.635000228882     0.606540024281     0.000003654085     
11.739999771118     0.611985981464     0.000003689091     
11.845000267029     0.617102980614     0.000003724866     
11.949999809265     0.622384011745     0.000003762565     
12.055000305176     0.627665996552     0.000003797571     
12.159999847412     0.632947027683     0.000003832192     
12.265000343323     0.638229012489     0.000003868352     
12.369999885559     0.643509984016     0.000003902973     
12.475000381470     0.648626029491     0.000003937979     
12.579999923706     0.653908014297     0.000003972985     
12.685000419617     0.659188985825     0.000004008761     
12.789999961853     0.664470970631     0.000004041843     
12.895000457764     0.669752001762     0.000004076849     
13.000000000000     0.675033986568     0.000004109162     
13.104999542236     0.680315017700     0.000004141860     
13.210000038147     0.685597002506     0.000004174943     
13.314999580383     0.690712988377     0.000004209180     
13.420000076294     0.696159005165     0.000004240723     
13.524999618530     0.701276004314     0.000004273421     
13.630000114441     0.706556975842     0.000004306119     
13.734999656677     0.711839020252     0.000004338432     
13.840000152588     0.717119991779     0.000004369207     
13.944999694824     0.722401976585     0.000004402289     
14.050000190735     0.727683007717     0.000004432679     
14.154999732971     0.732963979244     0.000004464223     
14.260000228882     0.738246023655     0.000004496921     
14.364999771118     0.743526995182     0.000004527311     
14.470000267029     0.748643994331     0.000004557700     
14.574999809265     0.753925025463     0.000004591937     
14.680000305176     0.759207010269     0.000004622712     
14.784999847412     0.764487981796     0.000004652717     
14.890000343323     0.769933998585     0.000004683876     
14.994999885559     0.775050997734     0.000004716189     
15.100000381470     0.780332028866     0.000004744655     
15.204999923706     0.785614013672     0.000004776584     
15.310000419617     0.790894985199     0.000004806974     
15.414999961853     0.796177029610     0.000004836594     
15.520000457764     0.801293015480     0.000004866599     
15.625000000000     0.806573987007     0.000004897374     
15.729999542236     0.811855971813     0.000004927379     
15.835000038147     0.817137002945     0.000004958923     
15.939999580383     0.822418987751     0.000004990467     
16.045000076294     0.827700018883     0.000005020856     
16.149999618530     0.832982003689     0.000005050092     
16.254999160767     0.838262975216     0.000005083175     
16.360000610352     0.843544006348     0.000005112026     
16.465000152588     0.848825991154     0.000005142031     
16.569999694824     0.853941977024     0.000005174344     
16.674999237061     0.859224021435     0.000005205888     
16.780000686646     0.864504992962     0.000005236278     
16.885000228882     0.869786977768     0.000005269745     
16.989999771118     0.875068008900     0.000005301674     
17.094999313354     0.880348980427     0.000005332833     
17.200000762939     0.885631024837     0.000005362453     
17.305000305176     0.890911996365     0.000005395920     
17.409999847412     0.896193981171     0.000005426695     
17.514999389648     0.901310026646     0.000005460547     
17.620000839233     0.906592011452     0.000005494014     
17.725000381470     0.912038028240     0.000005526327     
17.829999923706     0.917155027390     0.000005559410     
17.934999465942     0.922435998917     0.000005593646     
18.040000915527     0.927716970444     0.000005624421     
18.145000457764     0.932999014854     0.000005659812     
18.250000000000     0.938279986382     0.000005697126     
18.354999542236     0.943396985531     0.000005730978     
18.459999084473     0.948678016663     0.000005764829     
18.565000534058     0.953960001469     0.000005802144     
18.670000076294     0.959240972996     0.000005837919     
18.774999618530     0.964522004128     0.000005871386     
18.879999160767     0.969803988934     0.000005908700     
18.985000610352     0.974919974804     0.000005946784     
19.090000152588     0.980367004871     0.000005985636     
19.194999694824     0.985647976398     0.000006027567     
19.299999237061     0.990930020809     0.000006067958     
19.405000686646     0.996210992336     0.000006108734     
19.510000228882     1.001327037811     0.000006149126     
19.614999771118     1.006608963013     0.000006192210     
19.719999313354     1.011890053749     0.000006235679     
19.825000762939     1.017171978951     0.000006278763     
19.930000305176     1.022287964821     0.000006324925     
20.034999847412     1.027734994888     0.000006370317     
20.139999389648     1.032850980759     0.000006418787     
20.245000839233     1.038131952286     0.000006469180     
20.350000381470     1.043413996696     0.000006519958     
20.454999923706     1.048694968224     0.000006571506     
20.559999465942     1.053977012634     0.000006627669     
20.665000915527     1.059257984161     0.000006683832     
20.770000457764     1.064375042915     0.000006738842     
20.875000000000     1.069656014442     0.000006798852     
20.979999542236     1.074936985970     0.000006858093     
21.084999084473     1.080219030380     0.000006919257     
21.190000534058     1.085500001907     0.000006985422     
21.295000076294     1.090782046318     0.000007051972     
21.399999618530     1.096063017845     0.000007119676     
21.504999160767     1.101344943047     0.000007190073     
21.610000610352     1.106461048126     0.000007263547     
21.715000152588     1.111907005310     0.000007338559     
21.819999694824     1.117189049721     0.000007417419     
21.924999237061     1.122305035591     0.000007497817     
22.030000686646     1.127586960793     0.000007580908     
22.135000228882     1.132868051529     0.000007666692     
22.239999771118     1.138149976730     0.000007757477     
22.344999313354     1.143430948257     0.000007845954     
22.450000762939     1.148547053337     0.000007939431     
22.555000305176     1.153993964195     0.000008038679     
22.659999847412     1.159109950066     0.000008138696     
22.764999389648     1.164391994476     0.000008241406     
22.870000839233     1.169672966003     0.000008349116     
22.975000381470     1.174955010414     0.000008459905     
23.079999923706     1.180235981941     0.000008572616     
23.184999465942     1.185518026352     0.000008690328     
23.290000915527     1.190798997879     0.000008810734     
23.395000457764     1.195914983749     0.000008934601     
23.500000000000     1.197566032410     0.000008823043     
23.604999542236     1.192448973656     0.000008433362     
23.709999084473     1.187168002129     0.000008097535     
23.815000534058     1.181887030602     0.000007794406     
23.920000076294     1.176769971848     0.000007517821     
24.024999618530     1.171489000320     0.000007261623     
24.129999160767     1.166206955910     0.000007025429     
24.235000610352     1.160925984383     0.000006805776     
24.340000152588     1.155644059181     0.000006600357     
24.444999694824     1.150527954102     0.000006409940     
24.549999237061     1.145246982574     0.000006234140     
24.655000686646     1.139965057373     0.000006067573     
24.760000228882     1.134683966637     0.000005909470     
24.864999771118     1.129402041435     0.000005764060     
24.969999313354     1.124120950699     0.000005626344     
25.075000762939     1.118839025497     0.000005495553     
25.180000305176     1.113723039627     0.000005374763     
25.284999847412     1.108276963234     0.000005260128     
25.389999389648     1.103160023689     0.000005149340     
25.495000839233     1.097879052162     0.000005047784     
25.600000381470     1.092597007751     0.000004950460     
25.704999923706     1.087316036224     0.000004855828     
25.809999465942     1.082198977470     0.000004767352     
25.915000915527     1.076918005943     0.000004683876     
26.020000457764     1.071637034416     0.000004603862     
26.125000000000     1.066354990005     0.000004526157     
26.229999542236     1.061074018478     0.000004454221     
26.334999084473     1.055791974068     0.000004384209     
26.440000534058     1.050511002541     0.000004317275     
26.545000076294     1.045228958130     0.000004253802     
26.649999618530     1.039947986603     0.000004191099     
26.754999160767     1.034665942192     0.000004131089     
26.860000610352     1.029549956322     0.000004074926     
26.965000152588     1.024268984795     0.000004018762     
27.069999694824     1.018987059593     0.000003963753     
27.174999237061     1.013705968857     0.000003913360     
27.280000686646     1.008424043655     0.000003862582     
27.385000228882     1.003142952919     0.000003811804     
27.489999771118     0.998027026653     0.000003765642     
27.594999313354     0.992744982243     0.000003719865     
27.700000762939     0.987464010715     0.000003674088     
27.805000305176     0.982182025909     0.000003629465     
27.909999847412     0.976900994778     0.000003586766     
28.014999389648     0.971619009972     0.000003544451     
28.120000839233     0.966503024101     0.000003503675     
28.225000381470     0.961220979691     0.000003463668     
28.329999923706     0.955940008163     0.000003422892     
28.434999465942     0.950658977032     0.000003382500     
28.540000915527     0.945212006569     0.000003345955     
28.645000457764     0.940096020699     0.000003307487     
28.750000000000     0.934813976288     0.000003270173     
28.854999542236     0.929533004761     0.000003234398     
28.959999084473     0.924251019955     0.000003198238     
29.065000534058     0.918969988823     0.000003161693     
29.170000076294     0.913689017296     0.000003126687     
29.274999618530     0.908572018147     0.000003092451     
29.379999160767     0.903290987015     0.000003057445     
29.485000610352     0.898009002209     0.000003024362     
29.590000152588     0.892562985420     0.000002991279     
29.694999694824     0.887445986271     0.000002958197     
29.799999237061     0.882165014744     0.000002925499     
29.905000686646     0.876883983612     0.000002893570     
30.010000228882     0.871601998806     0.000002860488     
30.114999771118     0.866321027279     0.000002827790     
30.219999313354     0.861204028130     0.000002797785     
30.325000762939     0.855922996998     0.000002764702     
30.430000305176     0.850641012192     0.000002732389     
30.534999847412     0.845359981060     0.000002702384     
30.639999389648     0.840079009533     0.000002671225     
30.745000839233     0.834797024727     0.000002638912     
30.850000381470     0.829680979252     0.000002609676     
30.954999923706     0.824398994446     0.000002578901     
31.059999465942     0.819118022919     0.000002547742     
31.165000915527     0.813835978508     0.000002517737     
31.270000457764     0.808555006981     0.000002488886     
31.375000000000     0.803273975849     0.000002458881     
31.479999542236     0.797991991043     0.000002430030     
31.584999084473     0.792711019516     0.000002400025     
31.690000534058     0.787428975105     0.000002370020     
31.795000076294     0.782148003578     0.000002340784     
31.899999618530     0.776866018772     0.000002313472     
32.005001068115     0.771584987640     0.000002283851     
32.110000610352     0.766303002834     0.000002255385     
32.215000152588     0.761021971703     0.000002228842     
32.319999694824     0.755905985832     0.000002200375     
32.424999237061     0.750624001026     0.000002171909     
32.529998779297     0.745343029499     0.000002144981     
32.634998321533     0.740060985088     0.000002116900     
32.740001678467     0.734780013561     0.000002088818     
32.845001220703     0.729498028755     0.000002062275     
32.950000762939     0.724216997623     0.000002035347     
33.055000305176     0.719101011753     0.000002007650     
33.159999847412     0.713819026947     0.000001981877     
33.264999389648     0.708537995815     0.000001954949     
33.369998931885     0.703256011009     0.000001928406     
33.474998474121     0.697974979877     0.000001903017     
33.580001831055     0.692692995071     0.000001878397     
33.685001373291     0.687412023544     0.000001852239     
33.790000915527     0.682295978069     0.000001827619     
33.895000457764     0.676849007607     0.000001803385     
34.000000000000     0.671733021736     0.000001778380     
34.104999542236     0.666450977325     0.000001752607     
34.209999084473     0.661170005798     0.000001730680     
34.314998626709     0.655888020992     0.000001705291     
34.419998168945     0.650606989861     0.000001681056     
34.525001525879     0.645326018333     0.000001657975     
34.630001068115     0.640043973923     0.000001633356     
34.735000610352     0.634763002396     0.000001608351     
34.840000152588     0.629481017590     0.000001584501     
34.944999694824     0.624364972115     0.000001560266     
35.049999237061     0.618918001652     0.000001534108     
35.154998779297     0.613636970520     0.000001509104     
35.259998321533     0.608520984650     0.000001484099     
