
Cycle 1
Physical Cycle 1
Step 1

Time (s),          Potential (V),         Current (A)
0.104999996722     0.002475999994     -0.000000408810     
0.209999993443     0.007757000159     -0.000000397348     
0.314999997616     0.013039000332     -0.000000385886     
0.419999986887     0.018485000357     -0.000000370603     
0.449999988079     0.028387999162     -0.000000346598     
0.555000007153     0.033668998629     -0.000000335827     
0.660000026226     0.038950998336     -0.000000323901     
0.764999985695     0.044231999665     -0.000000313130     
0.795000016689     0.054464999586     -0.000000291593     
0.899999976158     0.059581000358     -0.000000280823     
1.004999995232     0.064862996340     -0.000000269421     
1.110000014305     0.070143997669     -0.000000258862     
1.215000033379     0.075425997376     -0.000000248554     
1.320000052452     0.080541998148     -0.000000237406     
1.424999952316     0.085822999477     -0.000000226804     
1.529999971390     0.091104999185     -0.000000216454     
1.634999990463     0.096386000514     -0.000000205432     
1.740000009537     0.101668000221     -0.000000194998     
1.845000028610     0.106949001551     -0.000000184523     
1.950000047684     0.112231001258     -0.000000173626     
2.055000066757     0.117512002587     -0.000000163235     
2.160000085831     0.122792996466     -0.000000153096     
2.265000104904     0.128075003624     -0.000000141947     
2.369999885559     0.133191004395     -0.000000131429     
2.474999904633     0.138473004103     -0.000000121627     
2.579999923706     0.143754005432     -0.000000110604     
2.684999942780     0.149036005139     -0.000000099666     
2.789999961853     0.154317006469     -0.000000089863     
2.894999980927     0.159433007240     -0.000000079261     
3.000000000000     0.164715006948     -0.000000067944     
3.105000019073     0.169995993376     -0.000000058016     
3.210000038147     0.175277993083     -0.000000047750     
3.315000057220     0.180558994412     -0.000000036602     
3.420000076294     0.185840994120     -0.000000026336     
3.525000095367     0.191121995449     -0.000000016197     
3.630000114441     0.196402996778     -0.000000005133     
3.734999895096     0.201684996486     0.000000005301     
3.835000038147     0.207956999540     0.000000018341     
3.940000057220     0.213238000870     0.000000028709     
4.045000076294     0.218354001641     0.000000038527     
4.150000095367     0.223636001348     0.000000049588     
4.255000114441     0.228752002120     0.000000060187     
4.360000133514     0.234034001827     0.000000069924     
4.465000152588     0.239150002599     0.000000080646     
4.514999866486     0.248723000288     0.000000099834     
4.619999885559     0.254004001617     0.000000110057     
4.724999904633     0.259119987488     0.000000120280     
4.829999923706     0.264402002096     0.000000131387     
4.934999942780     0.269683003426     0.000000141989     
5.039999961853     0.274964988232     0.000000151918     
5.144999980927     0.280245989561     0.000000163024     
5.250000000000     0.285528004169     0.000000173963     
5.355000019073     0.290809005499     0.000000183681     
5.460000038147     0.296090990305     0.000000194325     
5.565000057220     0.301371991634     0.000000205600     
5.670000076294     0.306488007307     0.000000215655     
5.775000095367     0.311769992113     0.000000226088     
5.880000114441     0.317050993443     0.000000237406     
5.985000133514     0.322333008051     0.000000248007     
6.090000152588     0.327614009380     0.000000258146     
6.195000171661     0.332895994186     0.000000269253     
6.300000190735     0.338012009859     0.000000279729     
6.405000209808     0.343293011189     0.000000290162     
6.510000228882     0.348574995995     0.000000301185     
6.614999771118     0.353855997324     0.000000311660     
6.719999790192     0.359138011932     0.000000322220     
6.824999809265     0.364419013262     0.000000333285     
6.929999828339     0.369700998068     0.000000343887     
7.034999847412     0.374817013741     0.000000354194     
7.139999866486     0.380097985268     0.000000365427     
7.244999885559     0.385379999876     0.000000376239     
7.349999904633     0.390661001205     0.000000386210     
7.454999923706     0.395942986012     0.000000397401     
7.559999942780     0.401223987341     0.000000408760     
7.664999961853     0.406506001949     0.000000418941     
7.769999980927     0.411621987820     0.000000429879     
7.875000000000     0.416902989149     0.000000441407     
7.980000019073     0.422185003757     0.000000451798     
8.085000038147     0.427466005087     0.000000462358     
8.189999580383     0.432747989893     0.000000473885     
8.295000076294     0.438028991222     0.000000484740     
8.399999618530     0.443311005831     0.000000495257     
8.505000114441     0.448426991701     0.000000506659     
8.609999656677     0.453707993031     0.000000517597     
8.715000152588     0.458990007639     0.000000528493     
8.819999694824     0.464271008968     0.000000539895     
8.925000190735     0.469552993774     0.000000550707     
9.029999732971     0.474833995104     0.000000561687     
9.135000228882     0.480116009712     0.000000573341     
9.239999771118     0.485231995583     0.000000584321     
9.345000267029     0.490512996912     0.000000595134     
9.449999809265     0.495795011520     0.000000606871     
9.555000305176     0.501075983047     0.000000618357     
9.659999847412     0.506358027458     0.000000628748     
9.765000343323     0.511638998985     0.000000640612     
9.869999885559     0.516920983791     0.000000652771     
9.975000381470     0.522037029266     0.000000663499     
10.079999923706     0.527483999729     0.000000674689     
10.185000419617     0.532599985600     0.000000686722     
10.289999961853     0.537881016731     0.000000697702     
10.395000457764     0.543163001537     0.000000708725     
10.500000000000     0.548443973064     0.000000720673     
10.604999542236     0.553726017475     0.000000732116     
10.710000038147     0.558842003345     0.000000743223     
10.814999580383     0.564122974873     0.000000755213     
10.920000076294     0.569405019283     0.000000766572     
11.024999618530     0.574685990810     0.000000777847     
11.130000114441     0.579967975616     0.000000789711     
11.234999656677     0.585249006748     0.000000801112     
11.340000152588     0.590530991554     0.000000812471     
11.444999694824     0.595646977425     0.000000824546     
11.550000190735     0.600928008556     0.000000836157     
11.654999732971     0.606209993362     0.000000847306     
11.760000228882     0.611491024494     0.000000859591     
11.864999771118     0.616773009300     0.000000871455     
11.970000267029     0.621888995171     0.000000882225     
12.074999809265     0.627336025238     0.000000894509     
12.180000305176     0.632452011108     0.000000906920     
12.284999847412     0.637732982635     0.000000917901     
12.390000343323     0.643015027046     0.000000929681     
12.494999885559     0.648295998573     0.000000942218     
12.600000381470     0.653577983379     0.000000953745     
12.704999923706     0.658859014511     0.000000965399     
12.810000419617     0.664140999317     0.000000978188     
12.914999961853     0.669421970844     0.000000990136     
13.020000457764     0.674704015255     0.000001001537     
13.125000000000     0.679820001125     0.000001014032     
13.229999542236     0.685100972652     0.000001025939     
13.335000038147     0.690383017063     0.000001037845     
13.439999580383     0.697314977646     0.000001053257     
13.545000076294     0.702596008778     0.000001065182     
13.649999618530     0.707877993584     0.000001077107     
13.755000114441     0.713159024715     0.000001089801     
13.859999656677     0.718275010586     0.000001102111     
13.965000152588     0.723556995392     0.000001114036     
14.069999694824     0.728838026524     0.000001126731     
14.175000190735     0.734120011330     0.000001138656     
14.279999732971     0.739400982857     0.000001150196     
14.385000228882     0.744683027267     0.000001162891     
14.489999771118     0.749799013138     0.000001175585     
14.595000267029     0.755244970322     0.000001187510     
14.699999809265     0.760362029076     0.000001199435     
14.805000305176     0.765643000603     0.000001212899     
14.909999847412     0.770924985409     0.000001224824     
15.015000343323     0.776206016541     0.000001237519     
15.119999885559     0.781488001347     0.000001250213     
15.225000381470     0.786768972874     0.000001262138     
15.329999923706     0.792050004005     0.000001274448     
15.435000419617     0.797331988811     0.000001287912     
15.539999961853     0.802613019943     0.000001300222     
15.645000457764     0.807730019093     0.000001312916     
15.750000000000     0.813010990620     0.000001325995     
15.854999542236     0.818292975426     0.000001338305     
15.960000038147     0.823574006557     0.000001350615     
16.065000534058     0.828854978085     0.000001364464     
16.170000076294     0.834137022495     0.000001377158     
16.274999618530     0.839417994022     0.000001389852     
16.379999160767     0.844699978828     0.000001403701     
16.485000610352     0.849981009960     0.000001417165     
16.590000152588     0.855262994766     0.000001429859     
16.694999694824     0.860544025898     0.000001443708     
16.799999237061     0.865826010704     0.000001458326     
16.905000686646     0.870941996574     0.000001472174     
17.010000228882     0.876223027706     0.000001486792     
17.114999771118     0.881505012512     0.000001501795     
17.219999313354     0.886785984039     0.000001516797     
17.325000762939     0.892068028450     0.000001532184     
17.430000305176     0.897348999977     0.000001548726     
17.534999847412     0.902630984783     0.000001565267     
17.639999389648     0.907912015915     0.000001581424     
17.745000839233     0.913028001785     0.000001598734     
17.850000381470     0.918309986591     0.000001616045     
17.954999923706     0.923591017723     0.000001632971     
18.059999465942     0.929037988186     0.000001650666     
18.165000915527     0.934153974056     0.000001667592     
18.270000457764     0.939436018467     0.000001684133     
18.375000000000     0.944716989994     0.000001702213     
18.479999542236     0.949832975864     0.000001719139     
18.584999084473     0.955280005932     0.000001735681     
18.690000534058     0.960395991802     0.000001753376     
18.795000076294     0.965843021870     0.000001770302     
18.899999618530     0.970959007740     0.000001786459     
19.004999160767     0.976240992546     0.000001804154     
19.110000610352     0.981522023678     0.000001821080     
19.215000152588     0.986802995205     0.000001837236     
19.319999694824     0.992084980011     0.000001853778     
19.424999237061     0.997366011143     0.000001871088     
19.530000686646     1.002647995949     0.000001887245     
19.635000228882     1.007763981819     0.000001903402     
19.739999771118     1.013046026230     0.000001920328     
19.844999313354     1.018326997757     0.000001936869     
19.950000762939     1.023607969284     0.000001953025     
20.055000305176     1.028890013695     0.000001970336     
20.159999847412     1.034170985222     0.000001986493     
20.264999389648     1.039453029633     0.000002003034     
20.370000839233     1.044734001160     0.000002019960     
20.475000381470     1.049850940704     0.000002036501     
20.579999923706     1.055132031441     0.000002052658     
20.684999465942     1.060413002968     0.000002069584     
20.790000915527     1.065695047379     0.000002086125     
20.895000457764     1.070976018906     0.000002102666     
21.000000000000     1.076257944107     0.000002119592     
21.104999542236     1.081539034843     0.000002136518     
21.209999084473     1.086820960045     0.000002152290     
21.315000534058     1.092102050781     0.000002169601     
21.420000076294     1.097383975983     0.000002186527     
21.524999618530     1.102664947510     0.000002202299     
21.629999160767     1.107946038246     0.000002219225     
21.735000610352     1.113062977791     0.000002236535     
21.840000152588     1.118343949318     0.000002253077     
21.944999694824     1.123625993729     0.000002269233     
22.049999237061     1.128906965256     0.000002286544     
22.155000686646     1.134189009666     0.000002303085     
22.260000228882     1.139469981194     0.000002319626     
22.364999771118     1.144750952721     0.000002336552     
22.469999313354     1.149868011475     0.000002353094     
22.575000762939     1.155313968658     0.000002369250     
22.680000305176     1.160596013069     0.000002386561     
22.784999847412     1.165711998940     0.000002403487     
22.889999389648     1.170994043350     0.000002420028     
22.995000839233     1.176275014877     0.000002437339     
23.100000381470     1.181555986404     0.000002453880     
23.204999923706     1.186838030815     0.000002470037     
23.309999465942     1.192119002342     0.000002487347     
23.415000915527     1.197401046753     0.000002503889     
23.520000457764     1.197070956230     0.000002497349     
23.625000000000     1.191789031029     0.000002475038     
23.729999542236     1.186508059502     0.000002453880     
23.834999084473     1.181226015091     0.000002431569     
23.940000534058     1.175945043564     0.000002410796     
24.045000076294     1.170662999153     0.000002390792     
24.149999618530     1.165382027626     0.000002369250     
24.254999160767     1.160101056099     0.000002348478     
24.360000610352     1.154819011688     0.000002328474     
24.465000152588     1.149538040161     0.000002308086     
24.569999694824     1.144420981407     0.000002287698     
24.674999237061     1.139140009880     0.000002268079     
24.780000686646     1.133857965469     0.000002248460     
24.885000228882     1.128576993942     0.000002229226     
24.989999771118     1.123296022415     0.000002210377     
25.094999313354     1.118013978004     0.000002191143     
25.200000762939     1.112897992134     0.000002171524     
25.305000305176     1.107450962067     0.000002153060     
25.409999847412     1.102334976196     0.000002134210     
25.514999389648     1.097053050995     0.000002114976     
25.620000839233     1.091771960258     0.000002096896     
25.725000381470     1.086490988731     0.000002078816     
25.829999923706     1.081208944321     0.000002059582     
25.934999465942     1.075927972794     0.000002041502     
26.040000915527     1.070646047592     0.000002024191     
26.145000457764     1.065364956856     0.000002005727     
26.250000000000     1.060248017311     0.000001987647     
26.354999542236     1.054801940918     0.000001970721     
26.459999084473     1.049685955048     0.000001953025     
26.565000534058     1.044404029846     0.000001934945     
26.670000076294     1.039123058319     0.000001918019     
26.774999618530     1.033841013908     0.000001900709     
26.879999160767     1.028560042381     0.000001883783     
26.985000610352     1.023277997971     0.000001867242     
27.090000152588     1.017997026443     0.000001849931     
27.194999694824     1.012881040573     0.000001833390     
27.299999237061     1.007598996162     0.000001816464     
27.405000686646     1.002318024635     0.000001799922     
27.510000228882     0.997035980225     0.000001782612     
27.614999771118     0.991755008698     0.000001766840     
27.719999313354     0.986473023891     0.000001750683     
27.825000762939     0.981191992760     0.000001733757     
27.930000305176     0.975910007954     0.000001717985     
28.034999847412     0.970628976822     0.000001702598     
28.139999389648     0.965512990952     0.000001686057     
28.245000839233     0.960231006145     0.000001670285     
28.350000381470     0.954949975014     0.000001654898     
28.454999923706     0.949667990208     0.000001638741     
28.559999465942     0.944387018681     0.000001622584     
28.665000915527     0.939104974270     0.000001607582     
28.770000457764     0.933824002743     0.000001591810     
28.875000000000     0.928542971611     0.000001576038     
28.979999542236     0.923425972462     0.000001561420     
29.084999084473     0.918145000935     0.000001546418     
29.190000534058     0.912863016129     0.000001531030     
29.295000076294     0.907581984997     0.000001516413     
29.399999618530     0.902300000191     0.000001501410     
29.504999160767     0.897019028664     0.000001486407     
29.610000610352     0.891737997532     0.000001472174     
29.715000152588     0.886456012726     0.000001457556     
29.819999694824     0.881174981594     0.000001442554     
29.924999237061     0.875892996788     0.000001428705     
30.030000686646     0.870612025261     0.000001414087     
30.135000228882     0.865495026112     0.000001398700     
30.239999771118     0.860049009323     0.000001385236     
30.344999313354     0.854767978191     0.000001371003     
30.450000762939     0.849650979042     0.000001356001     
30.555000305176     0.844370007515     0.000001342537     
30.659999847412     0.839088022709     0.000001329073     
30.764999389648     0.833971977234     0.000001314455     
30.870000839233     0.828525006771     0.000001300606     
30.975000381470     0.823243975639     0.000001287527     
31.079999923706     0.818127989769     0.000001273679     
31.184999465942     0.812681019306     0.000001259830     
31.290000915527     0.807564973831     0.000001246751     
31.395000457764     0.802282989025     0.000001233287     
31.500000000000     0.796836972237     0.000001219823     
31.604999542236     0.791719973087     0.000001207129     
31.709999084473     0.786439001560     0.000001193665     
31.815000534058     0.781157970428     0.000001180586     
31.920000076294     0.775875985622     0.000001167892     
32.025001525879     0.770759999752     0.000001155197     
32.130001068115     0.765478014946     0.000001141733     
32.235000610352     0.760196983814     0.000001129808     
32.340000152588     0.754914999008     0.000001117498     
32.444999694824     0.749634027481     0.000001104034     
32.549999237061     0.744351983070     0.000001092109     
32.654998779297     0.739071011543     0.000001079800     
32.759998321533     0.733789980412     0.000001067105     
32.865001678467     0.728507995605     0.000001054411     
32.970001220703     0.723227024078     0.000001042486     
33.075000762939     0.718110024929     0.000001029791     
33.180000305176     0.712828993797     0.000001017097     
33.284999847412     0.707547008991     0.000001005941     
33.389999389648     0.702265977859     0.000000993631     
33.494998931885     0.696985006332     0.000000980937     
33.599998474121     0.691703021526     0.000000968627     
33.705001831055     0.686421990395     0.000000956317     
33.810001373291     0.681140005589     0.000000943622     
33.915000915527     0.675858974457     0.000000932082     
34.020000457764     0.670576989651     0.000000919772     
34.125000000000     0.665296018124     0.000000907462     
34.229999542236     0.660014986992     0.000000895537     
34.334999084473     0.654733002186     0.000000883228     
34.439998626709     0.649617016315     0.000000870533     
34.544998168945     0.644169986248     0.000000858993     
34.650001525879     0.638889014721     0.000000846683     
34.755001068115     0.633772015572     0.000000833604     
34.860000610352     0.628490984440     0.000000821679     
34.965000152588     0.623210012913     0.000000810138     
35.069999694824     0.617928028107     0.000000797059     
35.174999237061     0.612646996975     0.000000784749     
35.279998779297     0.607365012169     0.000000772824     
