
Cycle 1
Physical Cycle 1
Step 1

Time (s),          Potential (V),         Current (A)
0.104999996722     0.001983999973     -0.000000964416     
0.209999993443     0.007275000215     -0.000000899613     
0.314999997616     0.012400999665     -0.000000842434     
0.419999986887     0.017692999914     -0.000000792879     
0.449999988079     0.027778999880     -0.000000776634     
0.555000007153     0.033070001751     -0.000000733637     
0.660000026226     0.038361001760     -0.000000692943     
0.764999985695     0.043653000146     -0.000000654169     
0.870000004768     0.048778001219     -0.000000617314     
0.975000023842     0.054069999605     -0.000000583531     
1.080000042915     0.059360999614     -0.000000550132     
1.184999942780     0.064652003348     -0.000000518652     
1.289999961853     0.069943003356     -0.000000489859     
1.394999980927     0.075234003365     -0.000000462602     
1.500000000000     0.080360002816     -0.000000435345     
1.605000019073     0.085652001202     -0.000000409240     
1.710000038147     0.090943001211     -0.000000385054     
1.815000057220     0.096234001219     -0.000000362020     
1.919999957085     0.101525001228     -0.000000340137     
2.025000095367     0.106816001236     -0.000000319406     
2.130000114441     0.112107999623     -0.000000299444     
2.180000066757     0.121201999485     -0.000000274042     
2.285000085831     0.126493006945     -0.000000255577     
2.390000104904     0.131784006953     -0.000000239000     
2.494999885559     0.136910006404     -0.000000223346     
2.599999904633     0.142201006413     -0.000000207567     
2.704999923706     0.147493004799     -0.000000192039     
2.809999942780     0.152784004807     -0.000000178022     
2.914999961853     0.158075004816     -0.000000163922     
3.019999980927     0.163366004825     -0.000000150996     
3.125000000000     0.168492004275     -0.000000139455     
3.230000019073     0.173783004284     -0.000000127704     
3.335000038147     0.179075002670     -0.000000115366     
3.440000057220     0.184200003743     -0.000000103993     
3.545000076294     0.189492002130     -0.000000094131     
3.650000095367     0.194783002138     -0.000000084059     
3.755000114441     0.200074002147     -0.000000074617     
3.859999895096     0.205365002155     -0.000000065720     
3.964999914169     0.210657000542     -0.000000056949     
4.070000171661     0.215948000550     -0.000000047422     
4.175000190735     0.221074000001     -0.000000039826     
4.280000209808     0.226365000010     -0.000000032902     
4.385000228882     0.231656000018     -0.000000025390     
4.489999771118     0.236947000027     -0.000000017542     
4.594999790192     0.242238000035     -0.000000010995     
4.659999847412     0.250340998173     -0.000000001755     
4.764999866486     0.255632013083     0.000000005276     
4.869999885559     0.260758012533     0.000000011135     
4.974999904633     0.266048997641     0.000000016605     
5.079999923706     0.271174997091     0.000000022975     
5.184999942780     0.276466012001     0.000000029239     
5.289999961853     0.281756997108     0.000000034465     
5.394999980927     0.287048012018     0.000000040309     
5.500000000000     0.292174011469     0.000000046573     
5.605000019073     0.297466009855     0.000000052161     
5.710000038147     0.302590996027     0.000000057639     
5.815000057220     0.307882994413     0.000000064013     
5.920000076294     0.313008010387     0.000000070433     
6.025000095367     0.318300008774     0.000000076273     
6.130000114441     0.323426008224     0.000000082838     
6.199999809265     0.332024008036     0.000000096481     
6.304999828339     0.337314993143     0.000000103574     
6.409999847412     0.342606008053     0.000000110372     
6.514999866486     0.347896993160     0.000000118136     
6.619999885559     0.353022992611     0.000000126655     
6.724999904633     0.358480006456     0.000000134545     
6.829999923706     0.363770991564     0.000000144113     
6.934999942780     0.368896991014     0.000000154101     
7.039999961853     0.374188005924     0.000000163292     
7.144999980927     0.379478991032     0.000000172315     
7.250000000000     0.384770989418     0.000000183310     
7.355000019073     0.389896005392     0.000000194347     
7.460000038147     0.395188003778     0.000000205175     
7.565000057220     0.400478988886     0.000000217051     
7.670000076294     0.405770003796     0.000000228886     
7.775000095367     0.410896003246     0.000000240049     
7.880000114441     0.416186988354     0.000000252303     
7.985000133514     0.421478003263     0.000000265984     
8.090000152588     0.426770001650     0.000000279665     
8.194999694824     0.432060986757     0.000000292717     
8.300000190735     0.437352001667     0.000000306692     
8.404999732971     0.442478001118     0.000000320961     
8.510000228882     0.447768986225     0.000000335271     
8.614999771118     0.453060001135     0.000000350631     
8.720000267029     0.458186000586     0.000000366788     
8.824999809265     0.463476985693     0.000000382232     
8.930000305176     0.468769013882     0.000000397717     
9.034999847412     0.474059998989     0.000000414378     
9.140000343323     0.479351013899     0.000000431668     
9.244999885559     0.484477013350     0.000000448161     
9.350000381470     0.489767998457     0.000000466207     
9.454999923706     0.495059013367     0.000000483749     
9.560000419617     0.500351011753     0.000000500787     
9.664999961853     0.505641996861     0.000000518791     
9.770000457764     0.510767996311     0.000000538557     
9.875000000000     0.516058981419     0.000000557778     
9.979999542236     0.521350026131     0.000000576663     
10.085000038147     0.526641011238     0.000000595800     
10.189999580383     0.531767010689     0.000000616154     
10.295000076294     0.537057995796     0.000000635962     
10.399999618530     0.542349994183     0.000000657029     
10.505000114441     0.547640979290     0.000000678810     
10.609999656677     0.552766978741     0.000000700255     
10.715000152588     0.558223009109     0.000000721280     
10.819999694824     0.563349008560     0.000000743942     
10.925000190735     0.568639993668     0.000000767107     
11.029999732971     0.573931992054     0.000000790441     
11.135000228882     0.579056978226     0.000000814572     
11.239999771118     0.584348976612     0.000000838367     
11.345000267029     0.589640021324     0.000000862288     
11.449999809265     0.594931006432     0.000000887384     
11.555000305176     0.600057005882     0.000000913739     
11.659999847412     0.605347990990     0.000000940136     
11.765000343323     0.610638976097     0.000000966575     
11.869999885559     0.615930974483     0.000000993349     
11.975000381470     0.621056020260     0.000001020628     
12.050000190735     0.629489004612     0.000001077613     
12.154999732971     0.634615004063     0.000001105254     
12.260000228882     0.639905989170     0.000001133279     
12.364999771118     0.645197987556     0.000001162071     
12.470000267029     0.650488972664     0.000001190864     
12.574999809265     0.655614972115     0.000001219657     
12.680000305176     0.661071002483     0.000001249985     
12.784999847412     0.666363000870     0.000001280313     
12.890000343323     0.671653985977     0.000001310258     
12.994999885559     0.676779985428     0.000001339434     
13.100000381470     0.682070970535     0.000001369762     
13.204999923706     0.687362015247     0.000001400091     
13.310000419617     0.692653000355     0.000001429651     
13.414999961853     0.697943985462     0.000001459595     
13.520000457764     0.703235983849     0.000001489540     
13.625000000000     0.708527028561     0.000001517949     
13.729999542236     0.713653028011     0.000001546741     
13.835000038147     0.718944013119     0.000001576686     
13.939999580383     0.724234998226     0.000001605862     
14.045000076294     0.729525983334     0.000001633887     
14.149999618530     0.734817981720     0.000001661912     
14.255000114441     0.740109026432     0.000001689553     
14.359999656677     0.745235025883     0.000001716810     
14.465000152588     0.750526010990     0.000001744067     
14.569999694824     0.755816996098     0.000001771708     
14.675000190735     0.761107981205     0.000001797813     
14.779999732971     0.766399979591     0.000001823534     
14.885000228882     0.771691024303     0.000001849256     
14.989999771118     0.776982009411     0.000001875745     
15.095000267029     0.782108008862     0.000001900315     
15.199999809265     0.787398993969     0.000001925652     
15.305000305176     0.792689979076     0.000001950222     
15.409999847412     0.797981977463     0.000001973640     
15.515000343323     0.803273022175     0.000001997442     
15.619999885559     0.808564007282     0.000002022012     
15.725000381470     0.813690006733     0.000002045814     
15.829999923706     0.818980991840     0.000002068464     
15.935000419617     0.824271976948     0.000002091498     
16.040000915527     0.829563021660     0.000002114532     
16.145000457764     0.834855020046     0.000002137182     
16.250000000000     0.839981019497     0.000002160217     
16.354999542236     0.845272004604     0.000002183251     
16.459999084473     0.850562989712     0.000002205901     
16.565000534058     0.855853974819     0.000002226632     
16.670000076294     0.861145019531     0.000002249666     
16.774999618530     0.866437017918     0.000002272700     
16.879999160767     0.871728003025     0.000002294966     
16.985000610352     0.876854002476     0.000002317232     
17.090000152588     0.882144987583     0.000002339499     
17.194999694824     0.887435972691     0.000002360997     
17.299999237061     0.892727017403     0.000002383648     
17.405000686646     0.898019015789     0.000002407066     
17.510000228882     0.903144001961     0.000002429716     
17.614999771118     0.908436000347     0.000002451598     
17.719999313354     0.913726985455     0.000002474248     
17.825000762939     0.919017970562     0.000002496131     
17.930000305176     0.924309015274     0.000002518013     
18.034999847412     0.929601013660     0.000002540663     
18.139999389648     0.934725999832     0.000002564849     
18.245000839233     0.940017998219     0.000002586732     
18.350000381470     0.945308983326     0.000002607846     
18.454999923706     0.950600028038     0.000002630497     
18.559999465942     0.955891013145     0.000002653915     
18.665000915527     0.961181998253     0.000002676181     
18.770000457764     0.966307997704     0.000002698831     
18.875000000000     0.971599996090     0.000002720713     
18.979999542236     0.976890981197     0.000002743364     
19.084999084473     0.982182025909     0.000002765246     
19.190000534058     0.987308025360     0.000002788664     
19.295000076294     0.992599010468     0.000002811314     
19.399999618530     0.997889995575     0.000002833581     
19.504999160767     1.003347039223     0.000002855463     
19.610000610352     1.008473038673     0.000002877345     
19.715000152588     1.013764023781     0.000002898844     
19.819999694824     1.019055008888     0.000002921494     
19.924999237061     1.024345993996     0.000002943761     
20.030000686646     1.029638051987     0.000002964875     
20.135000228882     1.034762978554     0.000002984838     
20.239999771118     1.040055036545     0.000003006720     
20.344999313354     1.045346021652     0.000003027835     
20.450000762939     1.050637006760     0.000003048182     
20.555000305176     1.055927991867     0.000003068529     
20.659999847412     1.061053991318     0.000003090027     
20.764999389648     1.066344976425     0.000003109990     
20.870000839233     1.071637034416     0.000003129953     
20.975000381470     1.076928019524     0.000003152219     
21.079999923706     1.082219004631     0.000003174870     
21.184999465942     1.087509989738     0.000003196368     
21.290000915527     1.092635989189     0.000003218250     
21.395000457764     1.098093032837     0.000003241668     
21.500000000000     1.103219032288     0.000003266238     
21.604999542236     1.108510017395     0.000003291576     
21.709999084473     1.113801002502     0.000003319217     
21.815000534058     1.119091987610     0.000003346090     
21.920000076294     1.124382972717     0.000003375266     
22.024999618530     1.129675030708     0.000003406362     
22.129999160767     1.134799957275     0.000003438994     
22.235000610352     1.140092015266     0.000003473161     
22.340000152588     1.145383000374     0.000003509632     
22.444999694824     1.150673985481     0.000003547254     
22.549999237061     1.155799984932     0.000003586796     
22.655000686646     1.161090970039     0.000003628258     
22.760000228882     1.166381955147     0.000003674710     
22.864999771118     1.171674013138     0.000003722314     
22.969999313354     1.176964998245     0.000003771069     
23.075000762939     1.182090997696     0.000003823664     
23.180000305176     1.187546968460     0.000003879330     
23.284999847412     1.192672967911     0.000003937299     
23.389999389648     1.197633981705     0.000003980680     
23.495000839233     1.195152997971     0.000003774524     
23.600000381470     1.190027952194     0.000003524988     
23.704999923706     1.184736013412     0.000003301941     
23.809999465942     1.179445028305     0.000003103848     
23.915000915527     1.174154043198     0.000002925717     
24.020000457764     1.169028043747     0.000002764094     
24.125000000000     1.163737058640     0.000002616676     
24.229999542236     1.158280014992     0.000002481926     
24.334999084473     1.153154015541     0.000002358694     
24.440000534058     1.147863030434     0.000002245827     
24.545000076294     1.142572045326     0.000002142557     
24.649999618530     1.137280941010     0.000002048117     
24.754999160767     1.132154941559     0.000001959820     
24.860000610352     1.126863956451     0.000001878432     
24.965000152588     1.121572017670     0.000001802804     
25.069999694824     1.116281032562     0.000001732934     
25.174999237061     1.110990047455     0.000001668438     
25.280000686646     1.105864048004     0.000001609317     
25.385000228882     1.100572943687     0.000001552116     
25.489999771118     1.095281958580     0.000001498370     
25.594999313354     1.089990019798     0.000001448846     
25.700000762939     1.084699034691     0.000001403162     
25.805000305176     1.079573035240     0.000001359013     
25.909999847412     1.074282050133     0.000001318319     
26.014999389648     1.068990945816     0.000001279545     
26.120000839233     1.063699960709     0.000001241923     
26.225000381470     1.058408975601     0.000001206220     
26.329999923706     1.053117036819     0.000001174356     
26.434999465942     1.047826051712     0.000001142876     
26.540000915527     1.042700052261     0.000001112548     
26.645000457764     1.037408947945     0.000001082988     
26.750000000000     1.032117962837     0.000001055730     
26.854999542236     1.026826977730     0.000001028473     
26.959999084473     1.021535038948     0.000001003520     
27.065000534058     1.016244053841     0.000000980102     
27.170000076294     1.011118054390     0.000000957068     
27.274999618530     1.005661964417     0.000000932882     
27.379999160767     1.000535964966     0.000000910616     
27.485000610352     0.995244979858     0.000000889885     
27.590000152588     0.989952981472     0.000000868770     
27.694999694824     0.984827995300     0.000000849191     
27.799999237061     0.979371011257     0.000000829996     
27.905000686646     0.974245011806     0.000000809649     
28.010000228882     0.968954026699     0.000000790454     
28.114999771118     0.963662981987     0.000000773946     
28.219999313354     0.958370983601     0.000000756671     
28.325000762939     0.953079998493     0.000000739011     
28.430000305176     0.947953999043     0.000000722120     
28.534999847412     0.942663013935     0.000000704844     
28.639999389648     0.937372028828     0.000000688336     
28.745000839233     0.932080984116     0.000000672212     
28.850000381470     0.926789999008     0.000000657624     
28.954999923706     0.921663999557     0.000000642652     
29.059999465942     0.916207015514     0.000000626912     
29.165000915527     0.911081016064     0.000000611556     
29.270000457764     0.905789971352     0.000000597352     
29.375000000000     0.900498986244     0.000000583147     
29.479999542236     0.895208001137     0.000000569711     
29.584999084473     0.889916002750     0.000000555890     
29.690000534058     0.884791016579     0.000000541302     
29.795000076294     0.879499018192     0.000000527481     
29.899999618530     0.874207973480     0.000000514813     
30.004999160767     0.868916988373     0.000000501376     
30.110000610352     0.863626003265     0.000000488707     
30.215000152588     0.858334004879     0.000000475271     
30.319999694824     0.853209018707     0.000000462602     
30.424999237061     0.847917020321     0.000000448781     
30.530000686646     0.842460989952     0.000000436113     
30.635000228882     0.837334990501     0.000000424980     
30.739999771118     0.832044005394     0.000000412695     
30.844999313354     0.826752007008     0.000000398874     
30.950000762939     0.821627020836     0.000000386589     
31.055000305176     0.816335022449     0.000000373537     
31.159999847412     0.811043977737     0.000000361636     
31.264999389648     0.805752992630     0.000000349351     
31.370000839233     0.800462007523     0.000000337834     
31.475000381470     0.795171022415     0.000000325165     
31.584999084473     0.789053022861     0.000000300481     
31.690000534058     0.783761024475     0.000000288227     
31.795000076294     0.778469979763     0.000000277987     
31.899999618530     0.773178994656     0.000000266446     
32.005001068115     0.767888009548     0.000000254066     
32.110000610352     0.762762010098     0.000000240930     
32.215000152588     0.757471024990     0.000000228886     
32.319999694824     0.752179026604     0.000000216338     
32.424999237061     0.747053980827     0.000000204293     
32.529998779297     0.741761982441     0.000000192039     
32.634998321533     0.736470997334     0.000000179030     
32.740001678467     0.731180012226     0.000000165097     
32.845001220703     0.726054012775     0.000000152255     
32.950000762939     0.720597028732     0.000000138658     
33.055000305176     0.715471982956     0.000000125396     
33.159999847412     0.710179984570     0.000000113100     
33.264999389648     0.704888999462     0.000000100552     
33.369998931885     0.699598014355     0.000000087291     
33.474998474121     0.694307029247     0.000000076127     
33.580001831055     0.689181029797     0.000000066811     
33.685001373291     0.683889985085     0.000000059047     
33.790000915527     0.678597986698     0.000000052500     
33.895000457764     0.673307001591     0.000000048807     
34.000000000000     0.668016016483     0.000000047296     
34.104999542236     0.662724971771     0.000000049101     
34.209999084473     0.657433986664     0.000000054892     
34.314998626709     0.652141988277     0.000000064671     
34.419998168945     0.647017002106     0.000000075876     
34.525001525879     0.641725003719     0.000000088088     
34.630001068115     0.636434018612     0.000000101643     
34.735000610352     0.631142973900     0.000000115366     
34.840000152588     0.625851988792     0.000000128124     
34.944999694824     0.620559990406     0.000000139077     
35.049999237061     0.615269005299     0.000000147303     
35.154998779297     0.609978020191     0.000000151122     
35.259998321533     0.604686975479     0.000000152339     
