
Cycle 1
Physical Cycle 1
Step 1

Time (s),          Potential (V),         Current (A)
0.104999996722     0.002479000017     -0.000000993773     
0.209999993443     0.007602000143     -0.000000882501     
0.314999997616     0.013055000454     -0.000000790414     
0.419999986887     0.018342999741     -0.000000709838     
0.449999988079     0.028257999569     -0.000000522492     
0.555000007153     0.033546000719     -0.000000467736     
0.660000026226     0.038833998144     -0.000000418765     
0.764999985695     0.044121999294     -0.000000374035     
0.870000004768     0.049244999886     -0.000000334318     
0.975000023842     0.054698001593     -0.000000298842     
1.080000042915     0.059820998460     -0.000000265680     
1.195000052452     0.071057997644     -0.000000200580     
1.299999952316     0.076181001961     -0.000000177829     
1.404999971390     0.081468999386     -0.000000156303     
1.509999990463     0.086756996810     -0.000000135831     
1.615000009537     0.092045001686     -0.000000117807     
1.720000028610     0.097332999110     -0.000000101768     
1.825000047684     0.102456003428     -0.000000086023     
1.929999947548     0.107744000852     -0.000000071630     
2.035000085831     0.113031998277     -0.000000059094     
2.140000104904     0.118320003152     -0.000000046768     
2.244999885559     0.123608000576     -0.000000035076     
2.349999904633     0.128895998001     -0.000000024988     
2.454999923706     0.134184002876     -0.000000015111     
2.559999942780     0.139307007194     -0.000000005487     
2.575000047684     0.150048002601     0.000000011565     
2.680000066757     0.155171006918     0.000000019666     
2.785000085831     0.160458996892     0.000000026430     
2.890000104904     0.165582001209     0.000000033290     
2.994999885559     0.170870006084     0.000000040284     
3.099999904633     0.175992995501     0.000000046591     
3.204999923706     0.181281000376     0.000000052195     
3.309999942780     0.186569005251     0.000000058590     
3.414999961853     0.191691994667     0.000000064332     
3.519999980927     0.196979999542     0.000000069279     
3.625000000000     0.202103003860     0.000000074764     
3.730000019073     0.207390993834     0.000000080426     
3.835000038147     0.212678998709     0.000000084969     
3.940000057220     0.217967003584     0.000000089982     
4.050000190735     0.224411994219     0.000000098222     
4.155000209808     0.229699999094     0.000000102570     
4.260000228882     0.234988003969     0.000000106495     
4.364999771118     0.240275993943     0.000000111645     
4.469999790192     0.245563998818     0.000000116668     
4.574999809265     0.250851988792     0.000000121691     
4.679999828339     0.256139993668     0.000000126629     
4.784999847412     0.261263012886     0.000000132496     
4.889999866486     0.266550987959     0.000000137899     
4.994999885559     0.271838992834     0.000000143260     
5.099999904633     0.277126997709     0.000000149549     
5.204999923706     0.282415002584     0.000000156049     
5.309999942780     0.287703007460     0.000000161663     
5.414999961853     0.292825996876     0.000000168543     
5.519999980927     0.298114001751     0.000000175972     
5.625000000000     0.303402006626     0.000000182810     
5.730000019073     0.308690011501     0.000000189944     
5.835000038147     0.313977986574     0.000000198597     
5.940000057220     0.319101005793     0.000000206152     
6.045000076294     0.324389010668     0.000000214045     
6.150000095367     0.329676985741     0.000000223120     
6.255000114441     0.334964990616     0.000000231942     
6.360000133514     0.340252995491     0.000000240300     
6.465000152588     0.345541000366     0.000000249839     
6.570000171661     0.350663989782     0.000000259379     
6.675000190735     0.355951994658     0.000000268369     
6.780000209808     0.361239999533     0.000000277951     
6.885000228882     0.366528004408     0.000000288166     
6.989999771118     0.371816009283     0.000000297747     
7.094999790192     0.376938998699     0.000000307667     
7.199999809265     0.382227003574     0.000000318135     
7.304999828339     0.387515008450     0.000000328349     
7.409999847412     0.392803013325     0.000000338015     
7.514999866486     0.398090988398     0.000000348610     
7.619999885559     0.403378993273     0.000000359373     
7.724999904633     0.408666998148     0.000000368955     
7.829999923706     0.413955003023     0.000000379381     
7.934999942780     0.419077992439     0.000000390186     
8.039999961853     0.424365997314     0.000000400443     
8.145000457764     0.429654002190     0.000000410743     
8.250000000000     0.434942007065     0.000000421844     
8.354999542236     0.440064996481     0.000000432185     
8.460000038147     0.445353001356     0.000000442062     
8.564999580383     0.450641006231     0.000000453332     
8.670000076294     0.455929011106     0.000000464180     
8.774999618530     0.461052000523     0.000000474099     
8.880000114441     0.466504991055     0.000000485032     
8.984999656677     0.471628010273     0.000000496428     
9.090000152588     0.476915985346     0.000000506727     
9.194999694824     0.482203990221     0.000000517533     
9.300000190735     0.487491995096     0.000000529352     
9.404999732971     0.492779999971     0.000000540031     
9.510000228882     0.498068004847     0.000000551174     
9.614999771118     0.503190994263     0.000000562866     
9.720000267029     0.508478999138     0.000000574432     
9.824999809265     0.513767004013     0.000000585786     
9.930000305176     0.519055008888     0.000000597900     
10.034999847412     0.524343013763     0.000000610226     
10.140000343323     0.529465973377     0.000000622171     
10.244999885559     0.534753978252     0.000000634243     
10.350000381470     0.540041983128     0.000000647159     
10.454999923706     0.545329988003     0.000000659653     
10.560000419617     0.550453007221     0.000000671978     
10.664999961853     0.555741012096     0.000000685612     
10.770000457764     0.561029016972     0.000000698866     
10.875000000000     0.566317021847     0.000000711613     
10.979999542236     0.571605026722     0.000000725838     
11.085000038147     0.576892971992     0.000000739725     
11.189999580383     0.582015991211     0.000000752810     
11.295000076294     0.587303996086     0.000000766950     
11.399999618530     0.592592000961     0.000000781513     
11.505000114441     0.597880005836     0.000000795822     
11.609999656677     0.603168010712     0.000000810089     
11.715000152588     0.608290970325     0.000000825622     
11.819999694824     0.613578975201     0.000000840395     
11.925000190735     0.618866980076     0.000000855253     
12.029999732971     0.624154984951     0.000000870913     
12.135000228882     0.629442989826     0.000000886530     
12.239999771118     0.634730994701     0.000000901726     
12.345000267029     0.639854013920     0.000000917808     
12.449999809265     0.645142018795     0.000000934016     
12.555000305176     0.650430023670     0.000000950014     
12.659999847412     0.655718028545     0.000000966138     
12.765000343323     0.661005973816     0.000000983402     
12.869999885559     0.666128993034     0.000001000032     
12.975000381470     0.671416997910     0.000001016241     
13.079999923706     0.676705002785     0.000001034053     
13.149999618530     0.685298025608     0.000001059637     
13.255000114441     0.690585970879     0.000001074676     
13.359999656677     0.695873975754     0.000001092028     
13.465000152588     0.701162993908     0.000001110151     
13.569999694824     0.706284999847     0.000001127503     
13.675000190735     0.711573004723     0.000001145241     
13.779999732971     0.716861009598     0.000001163364     
13.885000228882     0.722149014473     0.000001181488     
13.989999771118     0.727437973022     0.000001199997     
14.095000267029     0.732725977898     0.000001217734     
14.199999809265     0.737847983837     0.000001237014     
14.305000305176     0.743135988712     0.000001255138     
14.409999847412     0.748423993587     0.000001273647     
14.515000343323     0.753713011742     0.000001292927     
14.619999885559     0.759001016617     0.000001312593     
14.725000381470     0.764289021492     0.000001330716     
14.829999923706     0.769577026367     0.000001350382     
14.935000419617     0.774699985981     0.000001370433     
15.039999961853     0.779987990856     0.000001389328     
15.145000457764     0.785275995731     0.000001409379     
15.250000000000     0.790564000607     0.000001429430     
15.354999542236     0.795852005482     0.000001448710     
15.460000038147     0.801140010357     0.000001468762     
15.564999580383     0.806428015232     0.000001489970     
15.670000076294     0.811550974846     0.000001510407     
15.774999618530     0.816838979721     0.000001530073     
15.880000114441     0.822126984596     0.000001551281     
15.984999656677     0.827414989471     0.000001572489     
16.090000152588     0.832702994347     0.000001593312     
16.194999694824     0.837990999222     0.000001614520     
16.299999237061     0.843279004097     0.000001636499     
16.405000686646     0.848402023315     0.000001658093     
16.510000228882     0.853690028191     0.000001679301     
16.614999771118     0.858977973461     0.000001701666     
16.719999313354     0.864265978336     0.000001723645     
16.825000762939     0.869553983212     0.000001745625     
16.930000305176     0.874677002430     0.000001768761     
17.034999847412     0.880129992962     0.000001791126     
17.139999389648     0.885253012180     0.000001813491     
17.245000839233     0.890541017056     0.000001836627     
17.350000381470     0.895829021931     0.000001860149     
17.454999923706     0.901117026806     0.000001882899     
17.559999465942     0.906404972076     0.000001906036     
17.665000915527     0.911692976952     0.000001930329     
17.770000457764     0.916980981827     0.000001953079     
17.875000000000     0.922268986702     0.000001976601     
17.979999542236     0.927392005920     0.000002000894     
18.084999084473     0.932680010796     0.000002024801     
18.190000534058     0.937968015671     0.000002048323     
18.295000076294     0.943256020546     0.000002072616     
18.399999618530     0.948544025421     0.000002097295     
18.504999160767     0.953666985035     0.000002121202     
18.610000610352     0.958954989910     0.000002145881     
18.715000152588     0.964242994785     0.000002170559     
18.819999694824     0.969530999660     0.000002195238     
18.924999237061     0.974819004536     0.000002219916     
19.030000686646     0.980107009411     0.000002245366     
19.135000228882     0.985230028629     0.000002270816     
19.239999771118     0.990683019161     0.000002295109     
19.344999313354     0.995805978775     0.000002320559     
19.450000762939     1.001093983650     0.000002346780     
19.555000305176     1.006381988525     0.000002371458     
19.659999847412     1.011669993401     0.000002397679     
19.764999389648     1.016957998276     0.000002424286     
19.870000839233     1.022081017494     0.000002450121     
19.975000381470     1.027369022369     0.000002475957     
20.079999923706     1.032657027245     0.000002503720     
20.184999465942     1.037945032120     0.000002529941     
20.290000915527     1.043233036995     0.000002556548     
20.395000457764     1.048521041870     0.000002584311     
20.500000000000     1.053809046745     0.000002612460     
20.604999542236     1.059098005295     0.000002639838     
20.709999084473     1.064386010170     0.000002668373     
20.815000534058     1.069507956505     0.000002696522     
20.920000076294     1.074630975723     0.000002725442     
21.024999618530     1.080083966255     0.000002755519     
21.129999160767     1.085373044014     0.000002784825     
21.235000610352     1.090661048889     0.000002814131     
21.340000152588     1.095949053764     0.000002843822     
21.444999694824     1.101071000099     0.000002874670     
21.549999237061     1.106359004974     0.000002905904     
21.655000686646     1.111647963524     0.000002936367     
21.760000228882     1.116770029068     0.000002968372     
21.864999771118     1.122058033943     0.000003001148     
21.969999313354     1.127346038818     0.000003033153     
22.075000762939     1.132634043694     0.000003066701     
22.180000305176     1.137923002243     0.000003101405     
22.284999847412     1.143211007118     0.000003135724     
22.389999389648     1.148499011993     0.000003170428     
22.495000839233     1.153787016869     0.000003207060     
22.600000381470     1.158908963203     0.000003244078     
22.704999923706     1.164198040962     0.000003280710     
22.809999465942     1.169486045837     0.000003319656     
22.915000915527     1.174774050713     0.000003358602     
23.020000457764     1.180062055588     0.000003397934     
23.125000000000     1.185349941254     0.000003438808     
23.229999542236     1.190472960472     0.000003480838     
23.334999084473     1.195760965347     0.000003523255     
23.440000534058     1.197744011879     0.000003453846     
23.545000076294     1.192785978317     0.000003231739     
23.649999618530     1.187497973442     0.000003040480     
23.754999160767     1.182209968567     0.000002868886     
23.860000610352     1.176921963692     0.000002715416     
23.965000152588     1.171798944473     0.000002575442     
24.069999694824     1.166511058807     0.000002446265     
24.174999237061     1.161223053932     0.000002328271     
24.280000686646     1.155935049057     0.000002219916     
24.385000228882     1.150812029839     0.000002119274     
24.489999771118     1.145524024963     0.000002025573     
24.594999313354     1.140236020088     0.000001939969     
24.700000762939     1.134948015213     0.000001858606     
24.805000305176     1.129660010338     0.000001782643     
24.909999847412     1.124372005463     0.000001712463     
25.014999389648     1.119084000587     0.000001646910     
25.120000839233     1.113960981369     0.000001583672     
25.225000381470     1.108672976494     0.000001525060     
25.329999923706     1.103384971619     0.000001470304     
25.434999465942     1.098096966743     0.000001417862     
25.540000915527     1.092808961868     0.000001368119     
25.645000457764     1.087520956993     0.000001322233     
25.750000000000     1.082398056984     0.000001277117     
25.854999542236     1.077110052109     0.000001235086     
25.959999084473     1.071822047234     0.000001195369     
26.065000534058     1.066534042358     0.000001157580     
26.170000076294     1.061246037483     0.000001120177     
26.274999618530     1.055958032608     0.000001085472     
26.379999160767     1.050670027733     0.000001052696     
26.485000610352     1.045547008514     0.000001020306     
26.590000152588     1.040259003639     0.000000989843     
26.694999694824     1.034970998764     0.000000960923     
26.799999237061     1.029682993889     0.000000932002     
26.905000686646     1.024394989014     0.000000904625     
27.010000228882     1.019106984138     0.000000879175     
27.114999771118     1.013818979263     0.000000854496     
27.219999313354     1.008530974388     0.000000829046     
27.325000762939     1.003407955170     0.000000806296     
27.430000305176     0.998120009899     0.000000783931     
27.534999847412     0.992832005024     0.000000761180     
27.639999389648     0.987544000149     0.000000740358     
27.745000839233     0.982420980930     0.000000720306     
27.850000381470     0.976966977119     0.000000699484     
27.954999923706     0.971844971180     0.000000680589     
28.059999465942     0.966557025909     0.000000662466     
28.165000915527     0.961269021034     0.000000643957     
28.270000457764     0.955981016159     0.000000625062     
28.375000000000     0.950857996941     0.000000608482     
28.479999542236     0.945569992065     0.000000591901     
28.584999084473     0.940115988255     0.000000574934     
28.690000534058     0.934993982315     0.000000559124     
28.795000076294     0.929705977440     0.000000543700     
28.899999618530     0.924417018890     0.000000527891     
29.004999160767     0.919129014015     0.000000513238     
29.110000610352     0.914007008076     0.000000498970     
29.215000152588     0.908553004265     0.000000484317     
29.319999694824     0.903264999390     0.000000470050     
29.424999237061     0.898141980171     0.000000456940     
29.530000686646     0.892853975296     0.000000443443     
29.635000228882     0.887565970421     0.000000429947     
29.739999771118     0.882278025150     0.000000416837     
29.844999313354     0.877155005932     0.000000404883     
29.950000762939     0.871867001057     0.000000391773     
30.055000305176     0.866578996181     0.000000379819     
30.159999847412     0.861290991306     0.000000368251     
30.264999389648     0.856002986431     0.000000355912     
30.370000839233     0.850714981556     0.000000343958     
30.475000381470     0.845426976681     0.000000333547     
30.555000305176     0.837826013565     0.000000323115     
30.659999847412     0.832538008690     0.000000313027     
30.764999389648     0.827250003815     0.000000302601     
30.870000839233     0.822126984596     0.000000291331     
30.975000381470     0.816672980785     0.000000280779     
31.079999923706     0.811550974846     0.000000271028     
31.184999465942     0.806263029575     0.000000260518     
31.290000915527     0.800975024700     0.000000249839     
31.395000457764     0.795686006546     0.000000240426     
31.500000000000     0.790564000607     0.000000230465     
31.604999542236     0.785275995731     0.000000219955     
31.709999084473     0.779987990856     0.000000210415     
31.815000534058     0.774699985981     0.000000201129     
31.920000076294     0.769411027431     0.000000190872     
32.025001525879     0.764123022556     0.000000181502     
32.130001068115     0.758835017681     0.000000172427     
32.235000610352     0.753547012806     0.000000162803     
32.340000152588     0.748423993587     0.000000153306     
32.444999694824     0.743135988712     0.000000144779     
32.549999237061     0.737847983837     0.000000135535     
32.654998779297     0.732559978962     0.000000125869     
32.759998321533     0.727271974087     0.000000117132     
32.865001678467     0.721984028816     0.000000108774     
32.970001220703     0.716861009598     0.000000099446     
33.075000762939     0.711573004723     0.000000090540     
33.180000305176     0.706284999847     0.000000082393     
33.284999847412     0.700996994972     0.000000073487     
33.389999389648     0.695873975754     0.000000064285     
33.494998931885     0.690585970879     0.000000056477     
33.599998474121     0.685298025608     0.000000047613     
33.705001831055     0.680010020733     0.000000038580     
33.810001373291     0.674722015858     0.000000030898     
33.915000915527     0.669434010983     0.000000022540     
34.020000457764     0.664310991764     0.000000014182     
34.125000000000     0.659022986889     0.000000006289     
34.165000915527     0.649438977242     -0.000000006003     
34.270000457764     0.644150972366     -0.000000013347     
34.375000000000     0.639028012753     -0.000000019865     
34.479999542236     0.633740007877     -0.000000026218     
34.584999084473     0.628616988659     -0.000000033197     
34.689998626709     0.623328983784     -0.000000039097     
34.794998168945     0.618206024170     -0.000000044912     
34.900001525879     0.612918019295     -0.000000050958     
35.005001068115     0.607630014420     -0.000000056892     
35.110000610352     0.602342009544     -0.000000061797     
35.215000152588     0.597218990326     -0.000000067781     
