
Cycle 1
Physical Cycle 1
Step 1

Time (s),          Potential (V),         Current (A)
0.104999996722     0.002485000063     -0.000000894187     
0.209999993443     0.007786000147     -0.000000454736     
0.314999997616     0.013086999767     -0.000000359203     
0.419999986887     0.018387999386     -0.000000309526     
0.449999988079     0.028493000194     -0.000000249783     
0.555000007153     0.033628001809     -0.000000225884     
0.660000026226     0.038929000497     -0.000000204684     
0.764999985695     0.044064000249     -0.000000186567     
0.795000016689     0.054335001856     -0.000000157213     
0.899999976158     0.059636000544     -0.000000144063     
1.004999995232     0.064770996571     -0.000000130955     
1.110000014305     0.070072002709     -0.000000119401     
1.215000033379     0.075208000839     -0.000000109234     
1.320000052452     0.080508999527     -0.000000099235     
1.424999952316     0.085808999836     -0.000000089992     
1.529999971390     0.091109998524     -0.000000081884     
1.634999990463     0.096410997212     -0.000000073607     
1.740000009537     0.101547002792     -0.000000065288     
1.845000028610     0.107013002038     -0.000000058566     
1.950000047684     0.112149000168     -0.000000052558     
2.055000066757     0.117449998856     -0.000000045920     
2.160000085831     0.122584998608     -0.000000039702     
2.265000104904     0.127885997295     -0.000000034283     
2.369999885559     0.133186995983     -0.000000028401     
2.474999904633     0.138487994671     -0.000000022813     
2.579999923706     0.143622994423     -0.000000018528     
2.660000085831     0.151243001223     -0.000000011638     
2.765000104904     0.156543999910     -0.000000007038     
2.869999885559     0.161679998040     -0.000000002984     
2.974999904633     0.166980996728     0.000000001638     
3.079999923706     0.172281995416     0.000000006010     
3.184999942780     0.177416995168     0.000000009495     
3.289999961853     0.182717993855     0.000000013189     
3.394999980927     0.187852993608     0.000000017736     
3.500000000000     0.193154007196     0.000000021896     
3.605000019073     0.198455005884     0.000000025415     
3.710000038147     0.203756004572     0.000000029320     
3.815000057220     0.208891004324     0.000000033230     
3.920000076294     0.214027002454     0.000000036548     
4.025000095367     0.219328001142     0.000000040454     
4.130000114441     0.224628999829     0.000000045005     
4.235000133514     0.229929998517     0.000000048702     
4.340000152588     0.235064998269     0.000000051944     
4.445000171661     0.240365996957     0.000000056134     
4.550000190735     0.245666995645     0.000000060188     
4.655000209808     0.250802010298     0.000000063863     
4.760000228882     0.256103008986     0.000000068296     
4.864999771118     0.261238992214     0.000000072888     
4.969999790192     0.266539990902     0.000000076445     
5.074999809265     0.271840989590     0.000000080294     
5.179999828339     0.276975989342     0.000000085068     
5.215000152588     0.287411987782     0.000000095790     
5.320000171661     0.292546987534     0.000000099865     
5.425000190735     0.297847986221     0.000000103646     
5.530000209808     0.303149014711     0.000000108016     
5.635000228882     0.308284997940     0.000000113393     
5.739999771118     0.313585996628     0.000000118351     
5.844999790192     0.318886995316     0.000000122846     
5.949999809265     0.324187994003     0.000000128098     
6.054999828339     0.329488992691     0.000000133140     
6.159999847412     0.334623992443     0.000000136543     
6.264999866486     0.339924991131     0.000000141752     
6.369999885559     0.345225989819     0.000000148432     
6.474999904633     0.350526988506     0.000000153768     
6.579999923706     0.355827987194     0.000000158683     
6.684999942780     0.360962986946     0.000000164607     
6.789999961853     0.366263985634     0.000000170363     
6.894999980927     0.371565014124     0.000000175825     
7.000000000000     0.376866012812     0.000000182043     
7.105000019073     0.382001012564     0.000000188261     
7.210000038147     0.387302011251     0.000000193554     
7.315000057220     0.392603009939     0.000000199226     
7.420000076294     0.397904008627     0.000000205990     
7.525000095367     0.403205007315     0.000000212292     
7.630000114441     0.408340990543     0.000000218468     
7.735000133514     0.413641989231     0.000000225190     
7.840000152588     0.418942987919     0.000000231996     
7.945000171661     0.424077987671     0.000000238172     
8.050000190735     0.429378986359     0.000000244978     
8.154999732971     0.434680014849     0.000000252709     
8.260000228882     0.439981013536     0.000000259809     
8.364999771118     0.445282012224     0.000000266531     
8.470000267029     0.450417011976     0.000000274262     
8.574999809265     0.455718010664     0.000000281824     
8.680000305176     0.461019009352     0.000000288966     
8.784999847412     0.466154009104     0.000000297285     
8.890000343323     0.471455007792     0.000000306065     
8.994999885559     0.476922005415     0.000000313880     
9.100000381470     0.482057005167     0.000000321862     
9.204999923706     0.487358003855     0.000000330895     
9.310000419617     0.492659002542     0.000000339760     
9.414999961853     0.497794002295     0.000000348373     
9.520000457764     0.503094971180     0.000000357994     
9.625000000000     0.508230984211     0.000000367321     
9.729999542236     0.513531982899     0.000000375807     
9.835000038147     0.518832981586     0.000000385302     
9.939999580383     0.524133980274     0.000000395763     
10.045000076294     0.529434978962     0.000000405594     
10.149999618530     0.534569978714     0.000000415215     
10.255000114441     0.539870977402     0.000000425593     
10.359999656677     0.545171976089     0.000000435886     
10.465000152588     0.550472974777     0.000000445885     
10.569999694824     0.555607974529     0.000000456640     
10.675000190735     0.560908973217     0.000000468068     
10.779999732971     0.566209971905     0.000000478613     
10.885000228882     0.571510970592     0.000000488906     
10.989999771118     0.576812028885     0.000000500292     
11.095000267029     0.581947028637     0.000000511594     
11.199999809265     0.587248027325     0.000000522853     
11.305000305176     0.592549026012     0.000000534659     
11.409999847412     0.597684979439     0.000000546632     
11.515000343323     0.602985978127     0.000000557640     
11.619999885559     0.608286976814     0.000000569193     
11.725000381470     0.613421976566     0.000000581671     
11.829999923706     0.618888974190     0.000000593813     
11.935000419617     0.624023973942     0.000000605661     
12.039999961853     0.629324972630     0.000000618265     
12.145000457764     0.634459972382     0.000000630575     
12.250000000000     0.639760971069     0.000000642338     
12.354999542236     0.645062029362     0.000000654942     
12.460000038147     0.650363028049     0.000000668302     
12.564999580383     0.655498027802     0.000000680780     
12.670000076294     0.660965025425     0.000000693048     
12.774999618530     0.666100025177     0.000000706030     
12.880000114441     0.671401023865     0.000000719096     
12.984999656677     0.676536977291     0.000000731742     
13.090000152588     0.681837975979     0.000000745144     
13.194999694824     0.687138974667     0.000000758883     
13.300000190735     0.692439973354     0.000000771697     
13.404999732971     0.697574973106     0.000000784469     
13.510000228882     0.702875971794     0.000000798165     
13.614999771118     0.708176970482     0.000000811903     
13.720000267029     0.713478028774     0.000000825347     
13.824999809265     0.718779027462     0.000000839254     
13.930000305176     0.723914027214     0.000000853118     
14.034999847412     0.729215025902     0.000000866184     
14.140000343323     0.734516024590     0.000000879712     
14.244999885559     0.739651024342     0.000000894207     
14.350000381470     0.744952023029     0.000000908197     
14.454999923706     0.750253021717     0.000000921935     
14.560000419617     0.755554020405     0.000000936262     
14.664999961853     0.760689973831     0.000000950420     
14.770000457764     0.765990972519     0.000000963907     
14.875000000000     0.771125972271     0.000000978401     
14.979999542236     0.776593029499     0.000000993526     
15.085000038147     0.781728029251     0.000001007474     
15.189999580383     0.787029027939     0.000001021170     
15.295000076294     0.792330026627     0.000001036001     
15.364999771118     0.800943970680     0.000001062735     
15.470000267029     0.806245028973     0.000001076998     
15.574999809265     0.811380028725     0.000001091260     
15.680000305176     0.816681027412     0.000001105908     
15.784999847412     0.821982026100     0.000001120941     
15.890000343323     0.827117025852     0.000001134818     
15.994999885559     0.832418024540     0.000001149851     
16.100000381470     0.837719023228     0.000001164884     
16.204999923706     0.843020021915     0.000001179918     
16.309999465942     0.848321020603     0.000001193794     
16.415000915527     0.853622019291     0.000001209213     
16.520000457764     0.858923017979     0.000001223861     
16.625000000000     0.864058971405     0.000001238509     
16.729999542236     0.869360029697     0.000001253542     
16.834999084473     0.874661028385     0.000001268961     
16.940000534058     0.879796028137     0.000001283608     
17.045000076294     0.885097026825     0.000001297871     
17.149999618530     0.890398025513     0.000001312904     
17.254999160767     0.895699024200     0.000001327552     
17.360000610352     0.901000022888     0.000001342200     
17.465000152588     0.906135022640     0.000001357233     
17.569999694824     0.911436021328     0.000001371881     
17.674999237061     0.916737020016     0.000001385372     
17.780000686646     0.922038018703     0.000001400020     
17.885000228882     0.927339017391     0.000001415053     
17.989999771118     0.932474017143     0.000001429315     
18.094999313354     0.937775015831     0.000001443192     
18.200000762939     0.943076014519     0.000001458225     
18.305000305176     0.948377013206     0.000001472488     
18.409999847412     0.953678011894     0.000001485979     
18.514999389648     0.958813011646     0.000001501398     
18.620000839233     0.964114010334     0.000001516817     
18.725000381470     0.969415009022     0.000001530693     
18.829999923706     0.974716007710     0.000001544570     
18.934999465942     0.980017006397     0.000001558833     
19.040000915527     0.985153019428     0.000001573866     
19.145000457764     0.990454018116     0.000001588514     
19.250000000000     0.995755016804     0.000001603932     
19.354999542236     1.001055955887     0.000001620122     
19.459999084473     1.006191015244     0.000001633999     
19.565000534058     1.011492013931     0.000001649032     
19.670000076294     1.016793012619     0.000001664836     
19.774999618530     1.022094011307     0.000001680255     
19.879999160767     1.027228951454     0.000001696059     
19.985000610352     1.032529950142     0.000001713020     
20.090000152588     1.037830948830     0.000001729595     
20.194999694824     1.043131947517     0.000001745785     
20.299999237061     1.048267006874     0.000001762745     
20.405000686646     1.053568005562     0.000001780862     
20.510000228882     1.058869004250     0.000001798208     
20.614999771118     1.064170002937     0.000001815940     
20.719999313354     1.069306015968     0.000001835213     
20.825000762939     1.074772000313     0.000001854487     
20.930000305176     1.079908013344     0.000001873760     
21.034999847412     1.085209012032     0.000001894575     
21.139999389648     1.090509057045     0.000001916161     
21.245000839233     1.095810055733     0.000001940060     
21.350000381470     1.100945949554     0.000001970898     
21.454999923706     1.106246948242     0.000001992870     
21.559999465942     1.111547946930     0.000002016383     
21.665000915527     1.116848945618     0.000002040282     
21.770000457764     1.122149944305     0.000002066108     
21.875000000000     1.127450942993     0.000002091935     
21.979999542236     1.132586002350     0.000002118147     
22.084999084473     1.137887001038     0.000002145515     
22.190000534058     1.143187999725     0.000002174810     
22.295000076294     1.148323059082     0.000002204106     
22.399999618530     1.153624057770     0.000002234173     
22.504999160767     1.158925056458     0.000002266166     
22.610000610352     1.164226055145     0.000002298931     
22.715000152588     1.169527053833     0.000002332081     
22.819999694824     1.174828052521     0.000002367159     
22.924999237061     1.179962992668     0.000002403778     
23.030000686646     1.185263991356     0.000002440398     
23.135000228882     1.190400004387     0.000002478174     
23.239999771118     1.195701003075     0.000002518262     
23.344999313354     1.198516964912     0.000002519033     
23.450000762939     1.193712949753     0.000002426136     
23.555000305176     1.188411951065     0.000002346344     
23.659999847412     1.183277010918     0.000002264624     
23.764999389648     1.177976012230     0.000002185218     
23.870000839233     1.172675013542     0.000002109281     
23.975000381470     1.167374014854     0.000002036813     
24.079999923706     1.162073016167     0.000001967429     
24.184999465942     1.156937003136     0.000001899972     
24.290000915527     1.151636004448     0.000001835213     
24.395000457764     1.146335005760     0.000001773153     
24.500000000000     1.141034007072     0.000001711863     
24.604999542236     1.135898947716     0.000001652887     
24.709999084473     1.130597949028     0.000001596608     
24.815000534058     1.125296950340     0.000001541487     
24.920000076294     1.119995951653     0.000001487906     
25.024999618530     1.114861011505     0.000001436639     
25.129999160767     1.109560012817     0.000001386528     
25.235000610352     1.104259014130     0.000001337574     
25.340000152588     1.098958015442     0.000001290932     
25.444999694824     1.093657016754     0.000001246604     
25.549999237061     1.088521957397     0.000001202275     
25.655000686646     1.083220958710     0.000001158717     
25.760000228882     1.077919960022     0.000001118243     
25.864999771118     1.072783946991     0.000001078154     
25.969999313354     1.067482948303     0.000001039607     
26.075000762939     1.062181949615     0.000001002602     
26.180000305176     1.056880950928     0.000000967139     
26.284999847412     1.051579952240     0.000000931291     
26.389999389648     1.046280026436     0.000000897755     
26.495000839233     1.041144013405     0.000000865376     
26.600000381470     1.035843014717     0.000000834538     
26.704999923706     1.030542016029     0.000000804086     
26.809999465942     1.025241017342     0.000000774791     
26.915000915527     1.019940018654     0.000000747422     
27.020000457764     1.014804959297     0.000000720054     
27.125000000000     1.009503960609     0.000000693457     
27.229999542236     1.004369020462     0.000000669172     
27.334999084473     0.998902022839     0.000000645273     
27.440000534058     0.993767023087     0.000000621760     
27.545000076294     0.988466024399     0.000000599403     
27.649999618530     0.983165025711     0.000000578202     
27.754999160767     0.977864027023     0.000000557001     
27.860000610352     0.972563028336     0.000000537342     
27.965000152588     0.967428028584     0.000000518840     
28.069999694824     0.962126970291     0.000000499952     
28.174999237061     0.956825971603     0.000000481835     
28.280000686646     0.951524972916     0.000000464874     
28.385000228882     0.946223974228     0.000000448685     
28.489999771118     0.941088020802     0.000000432495     
28.594999313354     0.935787022114     0.000000417462     
28.700000762939     0.930486023426     0.000000403200     
28.805000305176     0.925185024738     0.000000388552     
28.909999847412     0.920050024986     0.000000374289     
29.014999389648     0.914749026299     0.000000361569     
29.120000839233     0.909448027611     0.000000349234     
29.225000381470     0.904147028923     0.000000336128     
29.239999771118     0.893213987350     0.000000310519     
29.344999313354     0.887912988663     0.000000299511     
29.450000762939     0.882777988911     0.000000289260     
29.555000305176     0.877476990223     0.000000278547     
29.659999847412     0.872175991535     0.000000267918     
29.764999389648     0.867039978504     0.000000258128     
29.870000839233     0.861738979816     0.000000248339     
29.975000381470     0.856437981129     0.000000238130     
30.079999923706     0.851136982441     0.000000228845     
30.184999465942     0.845835983753     0.000000220527     
30.290000915527     0.840700984001     0.000000211326     
30.395000457764     0.835399985313     0.000000201915     
30.500000000000     0.830098986626     0.000000193722     
30.604999542236     0.824797987938     0.000000185446     
30.709999084473     0.819496989250     0.000000176959     
30.815000534058     0.814361989498     0.000000169271     
30.920000076294     0.809060990810     0.000000162087     
31.024999618530     0.803925991058     0.000000153978     
31.129999160767     0.798458993435     0.000000146164     
31.235000610352     0.793323993683     0.000000139399     
31.340000152588     0.788022994995     0.000000132677     
31.444999694824     0.782721996307     0.000000125871     
31.549999237061     0.777585983276     0.000000119947     
31.655000686646     0.772284984589     0.000000114024     
31.760000228882     0.766984999180     0.000000107512     
31.864999771118     0.761684000492     0.000000102050     
31.969999313354     0.756547987461     0.000000097512     
32.075000762939     0.751246988773     0.000000092639     
32.180000305176     0.745945990086     0.000000087765     
32.284999847412     0.740644991398     0.000000083900     
32.389999389648     0.735343992710     0.000000080119     
32.494998931885     0.730208992958     0.000000076296     
32.599998474121     0.724907994270     0.000000073439     
32.705001831055     0.719606995583     0.000000071422     
32.810001373291     0.714471995831     0.000000068565     
32.915000915527     0.709170997143     0.000000065666     
33.020000457764     0.703869998455     0.000000063902     
33.125000000000     0.698403000832     0.000000062179     
33.229999542236     0.693268001080     0.000000060289     
33.334999084473     0.687967002392     0.000000059112     
33.439998626709     0.682666003704     0.000000057936     
33.544998168945     0.677531003952     0.000000055919     
33.650001525879     0.672230005264     0.000000054113     
33.755001068115     0.666929006577     0.000000052937     
33.860000610352     0.661628007889     0.000000051508     
33.965000152588     0.656491994858     0.000000049575     
34.069999694824     0.651190996170     0.000000048021     
34.174999237061     0.645889997482     0.000000046340     
34.279998779297     0.640754997730     0.000000043736     
34.384998321533     0.635453999043     0.000000041719     
34.490001678467     0.630153000355     0.000000040249     
34.595001220703     0.624852001667     0.000000037728     
34.700000762939     0.619551002979     0.000000034787     
34.805000305176     0.614250004292     0.000000032644     
34.909999847412     0.608949005604     0.000000030123     
35.014999389648     0.603814005852     0.000000027014     
35.119998931885     0.598513007164     0.000000024788     
