
Cycle 1
Physical Cycle 1
Step 1

Time (s),          Potential (V),         Current (A)
0.104999996722     0.002644000109     -0.000001005284     
0.209999993443     0.007766999770     -0.000000886338     
0.314999997616     0.013055000454     -0.000000786577     
0.419999986887     0.018342999741     -0.000000698327     
0.449999988079     0.028423000127     -0.000000495114     
0.555000007153     0.033711001277     -0.000000433418     
0.660000026226     0.038998998702     -0.000000377505     
0.764999985695     0.044286999851     -0.000000326606     
0.870000004768     0.049410000443     -0.000000281490     
0.975000023842     0.054698001593     -0.000000241387     
1.080000042915     0.059985999018     -0.000000204755     
1.169999957085     0.067092001438     -0.000000155332     
1.274999976158     0.072379998863     -0.000000127853     
1.379999995232     0.077503003180     -0.000000104005     
1.485000014305     0.082791000605     -0.000000081423     
1.590000033379     0.088078998029     -0.000000061373     
1.695000052452     0.093367002904     -0.000000044658     
1.799999952316     0.098655000329     -0.000000028998     
1.904999971390     0.103942997754     -0.000000014394     
2.009999990463     0.109066002071     -0.000000002322     
2.115000009537     0.114353999496     0.000000008737     
2.160000085831     0.123443000019     0.000000025850     
2.265000104904     0.128730997443     0.000000034369     
2.369999885559     0.133854001760     0.000000041724     
2.474999904633     0.138977006078     0.000000048995     
2.579999923706     0.144264996052     0.000000055751     
2.684999942780     0.149553000927     0.000000061213     
2.789999961853     0.154675006866     0.000000066733     
2.894999980927     0.159963995218     0.000000072333     
3.000000000000     0.165252000093     0.000000076942     
3.105000019073     0.170374006033     0.000000081106     
3.210000038147     0.175661996007     0.000000085980     
3.315000057220     0.180950999260     0.000000089855     
3.414999961853     0.188056007028     0.000000097125     
3.519999980927     0.193343997002     0.000000099573     
3.625000000000     0.198632001877     0.000000102274     
3.730000019073     0.203755006194     0.000000105735     
3.835000038147     0.209042996168     0.000000109450     
3.940000057220     0.214331001043     0.000000111940     
4.045000076294     0.219619005919     0.000000115021     
4.150000095367     0.224906995893     0.000000118440     
4.255000114441     0.230030000210     0.000000121437     
4.360000133514     0.235318005085     0.000000124054     
4.465000152588     0.240605995059     0.000000127938     
4.570000171661     0.245893999934     0.000000130808     
4.675000190735     0.251181989908     0.000000133551     
4.780000209808     0.256469994783     0.000000137350     
4.885000228882     0.261593014002     0.000000141191     
4.989999771118     0.266880989075     0.000000144062     
5.094999790192     0.272168993950     0.000000148072     
5.199999809265     0.277456998825     0.000000152672     
5.304999828339     0.282745003700     0.000000156556     
5.409999847412     0.288033992052     0.000000160777     
5.514999866486     0.293321996927     0.000000166222     
5.619999885559     0.298444002867     0.000000170865     
5.724999904633     0.303898006678     0.000000175930     
5.829999923706     0.309020012617     0.000000181797     
5.934999942780     0.314309000969     0.000000188044     
6.039999961853     0.319597005844     0.000000192983     
6.144999980927     0.324885010719     0.000000199905     
6.250000000000     0.330006986856     0.000000206701     
6.355000019073     0.335294991732     0.000000213243     
6.460000038147     0.340584009886     0.000000219828     
6.565000057220     0.345872014761     0.000000227848     
6.670000076294     0.351159989834     0.000000234770     
6.775000095367     0.356447994709     0.000000242030     
6.880000114441     0.361735999584     0.000000250135     
6.985000133514     0.366858989000     0.000000258155     
7.090000152588     0.372146993876     0.000000265288     
7.195000171661     0.377434998751     0.000000273772     
7.300000190735     0.382723003626     0.000000282130     
7.405000209808     0.388011008501     0.000000289981     
7.510000228882     0.393133997917     0.000000298000     
7.614999771118     0.398422002792     0.000000306780     
7.719999790192     0.403710007668     0.000000314927     
7.824999809265     0.408998012543     0.000000323200     
7.929999828339     0.414285987616     0.000000331768     
8.034999847412     0.419573992491     0.000000340548     
8.140000343323     0.424697011709     0.000000348441     
8.244999885559     0.429984986782     0.000000357263     
8.350000381470     0.435272991657     0.000000366296     
8.454999923706     0.440560996532     0.000000374316     
8.560000419617     0.445849001408     0.000000382800     
8.664999961853     0.451137006283     0.000000392128     
8.770000457764     0.456259995699     0.000000400486     
8.875000000000     0.461548000574     0.000000409096     
8.979999542236     0.466836005449     0.000000418467     
9.085000038147     0.472124010324     0.000000427289     
9.189999580383     0.477411985397     0.000000435815     
9.295000076294     0.482535004616     0.000000445397     
9.399999618530     0.487823009491     0.000000455063     
9.505000114441     0.493276000023     0.000000463716     
9.609999656677     0.498398989439     0.000000473255     
9.715000152588     0.503687024117     0.000000483428     
9.819999694824     0.508809983730     0.000000492925     
9.925000190735     0.514097988605     0.000000502675     
10.029999732971     0.519385993481     0.000000513354     
10.135000228882     0.524673998356     0.000000523569     
10.239999771118     0.529962003231     0.000000533868     
10.345000267029     0.535250008106     0.000000545096     
10.449999809265     0.540538012981     0.000000556324     
10.555000305176     0.545660972595     0.000000566750     
10.659999847412     0.550948977470     0.000000578273     
10.765000343323     0.556236982346     0.000000590598     
10.869999885559     0.561524987221     0.000000602037     
10.975000381470     0.566812992096     0.000000613813     
11.079999923706     0.572100996971     0.000000626772     
11.185000419617     0.577224016190     0.000000639266     
11.289999961853     0.582512021065     0.000000651507     
11.395000457764     0.587800025940     0.000000665225     
11.500000000000     0.593087971210     0.000000678605     
11.604999542236     0.598210990429     0.000000691606     
11.710000038147     0.603498995304     0.000000705957     
11.814999580383     0.608787000179     0.000000720520     
11.920000076294     0.614075005054     0.000000734407     
12.024999618530     0.619363009930     0.000000748547     
12.130000114441     0.624651014805     0.000000763827     
12.234999656677     0.629773974419     0.000000778685     
12.340000152588     0.635061979294     0.000000793627     
12.444999694824     0.640349984169     0.000000810257     
12.550000190735     0.645637989044     0.000000825791     
12.654999732971     0.650761008263     0.000000840100     
12.760000228882     0.656213998795     0.000000855211     
12.864999771118     0.661337018013     0.000000873234     
12.970000267029     0.666625022888     0.000000889485     
13.074999809265     0.671747982502     0.000000905905     
13.180000305176     0.677200973034     0.000000923379     
13.284999847412     0.682323992252     0.000000940221     
13.390000343323     0.687611997128     0.000000957189     
13.494999885559     0.692900002003     0.000000975044     
13.600000381470     0.698188006878     0.000000992392     
13.704999923706     0.703476011753     0.000001009656     
13.810000419617     0.708598971367     0.000001028608     
13.840000152588     0.719340026379     0.000001063107     
13.944999694824     0.724627971649     0.000001080460     
14.050000190735     0.729750990868     0.000001098583     
14.154999732971     0.735038995743     0.000001117477     
14.260000228882     0.740327000618     0.000001136372     
14.364999771118     0.745615005493     0.000001155267     
14.470000267029     0.750903010368     0.000001174161     
14.574999809265     0.756026029587     0.000001193827     
14.680000305176     0.761479020119     0.000001212721     
14.784999847412     0.766601979733     0.000001232387     
14.890000343323     0.771889984608     0.000001252824     
14.994999885559     0.777177989483     0.000001271333     
15.100000381470     0.782465994358     0.000001292156     
15.204999923706     0.787753999233     0.000001312978     
15.310000419617     0.793042004108     0.000001333030     
15.414999961853     0.798165023327     0.000001352695     
15.520000457764     0.803453028202     0.000001373518     
15.625000000000     0.808740973473     0.000001394340     
15.729999542236     0.814028978348     0.000001414777     
15.835000038147     0.819316983223     0.000001434829     
15.939999580383     0.824440002441     0.000001456423     
16.045000076294     0.829894006252     0.000001476859     
16.149999618530     0.835016012192     0.000001497682     
16.254999160767     0.840304017067     0.000001519276     
16.360000610352     0.845592021942     0.000001540870     
16.465000152588     0.850880026817     0.000001561307     
16.569999694824     0.856168985367     0.000001583286     
16.674999237061     0.861290991306     0.000001605265     
16.780000686646     0.866578996181     0.000001626473     
16.885000228882     0.871867001057     0.000001648067     
16.989999771118     0.877155005932     0.000001670818     
17.094999313354     0.882444024086     0.000001692797     
17.200000762939     0.887732028961     0.000001714391     
17.305000305176     0.892853975296     0.000001737527     
17.409999847412     0.898141980171     0.000001759892     
17.514999389648     0.903429985046     0.000001781486     
17.620000839233     0.908719003201     0.000001805008     
17.725000381470     0.914007008076     0.000001827758     
17.829999923706     0.919295012951     0.000001849738     
17.934999465942     0.924417018890     0.000001872488     
18.040000915527     0.929871022701     0.000001896010     
18.145000457764     0.935159027576     0.000001918761     
18.250000000000     0.940281987190     0.000001941897     
18.354999542236     0.945569992065     0.000001965418     
18.459999084473     0.950857996941     0.000001988940     
18.565000534058     0.956146001816     0.000002011691     
18.670000076294     0.961434006691     0.000002035984     
18.774999618530     0.966557025909     0.000002059891     
18.879999160767     0.971844971180     0.000002083027     
18.985000610352     0.977132976055     0.000002106935     
19.090000152588     0.982420980930     0.000002131228     
19.194999694824     0.987708985806     0.000002155521     
19.299999237061     0.992996990681     0.000002179428     
19.405000686646     0.998284995556     0.000002204107     
19.510000228882     1.003572940826     0.000002228785     
19.614999771118     1.008860945702     0.000002252307     
19.719999313354     1.013983964920     0.000002277371     
19.825000762939     1.019271969795     0.000002302436     
19.930000305176     1.024559974670     0.000002326729     
20.034999847412     1.029847979546     0.000002351407     
20.139999389648     1.034970998764     0.000002377242     
20.245000839233     1.040259003639     0.000002402307     
20.350000381470     1.045547008514     0.000002427756     
20.454999923706     1.050835013390     0.000002453592     
20.559999465942     1.056123018265     0.000002479427     
20.665000915527     1.061411023140     0.000002504491     
20.770000457764     1.066699028015     0.000002531098     
20.875000000000     1.071987032890     0.000002556933     
20.979999542236     1.077110052109     0.000002582769     
21.084999084473     1.082398056984     0.000002609376     
21.190000534058     1.087685942650     0.000002637139     
21.295000076294     1.092973947525     0.000002662974     
21.399999618530     1.098261952400     0.000002690352     
21.504999160767     1.103549957275     0.000002718501     
21.610000610352     1.108672976494     0.000002745879     
21.715000152588     1.113960981369     0.000002773257     
21.819999694824     1.119248986244     0.000002802563     
21.924999237061     1.124536991119     0.000002831097     
22.030000686646     1.129824995995     0.000002859632     
22.135000228882     1.135113000870     0.000002888938     
22.239999771118     1.140236020088     0.000002919400     
22.344999313354     1.145524024963     0.000002949092     
22.450000762939     1.150812029839     0.000002979940     
22.555000305176     1.156100034714     0.000003011559     
22.659999847412     1.161388039589     0.000003042793     
22.764999389648     1.166676044464     0.000003074413     
22.870000839233     1.171964049339     0.000003107960     
22.975000381470     1.177086949348     0.000003140736     
23.079999923706     1.182374954224     0.000003174669     
23.184999465942     1.187662959099     0.000003209759     
23.290000915527     1.192950963974     0.000003246006     
23.395000457764     1.197908997536     0.000003270685     
23.500000000000     1.195925951004     0.000003112587     
23.604999542236     1.190637946129     0.000002927112     
23.709999084473     1.185349941254     0.000002762460     
23.815000534058     1.180227041245     0.000002613617     
23.920000076294     1.174939036369     0.000002479042     
24.024999618530     1.169651031494     0.000002354878     
24.129999160767     1.164363026619     0.000002240353     
24.235000610352     1.159075021744     0.000002135084     
24.340000152588     1.153787016869     0.000002038297     
24.444999694824     1.148663997650     0.000001946910     
24.549999237061     1.143375992775     0.000001862462     
24.655000686646     1.138087987900     0.000001784185     
24.760000228882     1.132799983025     0.000001710921     
24.864999771118     1.127676963806     0.000001641126     
24.969999313354     1.122223973274     0.000001577502     
25.075000762939     1.116935968399     0.000001516962     
25.180000305176     1.111812949181     0.000001459893     
25.284999847412     1.106524944305     0.000001406680     
25.389999389648     1.101237058640     0.000001356551     
25.495000839233     1.095949053764     0.000001307965     
25.600000381470     1.090661048889     0.000001263235     
25.704999923706     1.085373044014     0.000001220819     
25.809999465942     1.080083966255     0.000001180331     
25.915000915527     1.074962019920     0.000001141385     
26.020000457764     1.069674015045     0.000001105524     
26.125000000000     1.064386010170     0.000001070434     
26.229999542236     1.059098005295     0.000001036886     
26.334999084473     1.053809046745     0.000001005653     
26.440000534058     1.048686981201     0.000000975576     
26.545000076294     1.043398976326     0.000000945884     
26.649999618530     1.038110971451     0.000000918506     
26.754999160767     1.032822012901     0.000000892285     
26.860000610352     1.027534008026     0.000000866450     
26.965000152588     1.022246003151     0.000000841386     
27.069999694824     1.017124056816     0.000000819021     
27.174999237061     1.011836051941     0.000000795885     
27.280000686646     1.006546974182     0.000000773520     
27.385000228882     1.001258969307     0.000000753468     
27.489999771118     0.995971024036     0.000000733031     
27.594999313354     0.990849018097     0.000000712594     
27.700000762939     0.985561013222     0.000000693700     
27.805000305176     0.980271995068     0.000000675576     
27.909999847412     0.974983990192     0.000000657068     
28.014999389648     0.969695985317     0.000000639715     
28.120000839233     0.964407980442     0.000000623520     
28.225000381470     0.959119975567     0.000000606939     
28.329999923706     0.953831970692     0.000000590744     
28.434999465942     0.948709011078     0.000000575320     
28.540000915527     0.943421006203     0.000000561052     
28.645000457764     0.938133001328     0.000000545628     
28.750000000000     0.932844996452     0.000000531361     
28.854999542236     0.927556991577     0.000000517865     
28.959999084473     0.922268986702     0.000000503983     
29.065000534058     0.917146027088     0.000000489716     
29.170000076294     0.911692976952     0.000000477762     
29.274999618530     0.906570017338     0.000000464652     
29.379999160767     0.901282012463     0.000000451927     
29.485000610352     0.895994007587     0.000000439973     
29.590000152588     0.890706002712     0.000000428019     
29.694999694824     0.885582983494     0.000000415680     
29.799999237061     0.880294978619     0.000000404498     
29.905000686646     0.874841988087     0.000000393701     
30.010000228882     0.869719028473     0.000000382133     
30.114999771118     0.864431023598     0.000000370950     
30.219999313354     0.859143018723     0.000000361310     
30.325000762939     0.853855013847     0.000000350128     
30.430000305176     0.848567008972     0.000000339716     
30.485000610352     0.839643001556     0.000000328940     
30.590000152588     0.834354996681     0.000000320034     
30.694999694824     0.829232990742     0.000000311085     
30.799999237061     0.823943972588     0.000000301124     
30.905000686646     0.818656027317     0.000000291289     
31.010000228882     0.813368022442     0.000000282552     
31.114999771118     0.808080017567     0.000000273097     
31.219999313354     0.802792012691     0.000000263642     
31.325000762939     0.797668993473     0.000000255200     
31.430000305176     0.792380988598     0.000000246378     
31.534999847412     0.787092983723     0.000000236965     
31.639999389648     0.781804978848     0.000000228481     
31.745000839233     0.776516973972     0.000000220335     
31.850000381470     0.771229028702     0.000000211386     
31.954999923706     0.766106009483     0.000000202775     
32.060001373291     0.760818004608     0.000000194840     
32.165000915527     0.755529999733     0.000000186567     
32.270000457764     0.750241994858     0.000000177956     
32.375000000000     0.744953989983     0.000000170232     
32.479999542236     0.739665985107     0.000000162296     
32.584999084473     0.734543025494     0.000000153601     
32.689998626709     0.729255020618     0.000000145961     
32.794998168945     0.723967015743     0.000000138406     
32.900001525879     0.718679010868     0.000000130006     
33.005001068115     0.713555991650     0.000000121859     
33.110000610352     0.708103001118     0.000000114937     
33.215000152588     0.702814996243     0.000000107086     
33.319999694824     0.697691977024     0.000000099151     
33.424999237061     0.692403972149     0.000000091764     
33.529998779297     0.687116026878     0.000000084377     
33.634998321533     0.681828022003     0.000000076231     
33.740001678467     0.676540017128     0.000000069182     
33.845001220703     0.671252012253     0.000000062302     
33.950000762939     0.666128993034     0.000000054577     
34.055000305176     0.660840988159     0.000000047401     
34.159999847412     0.655552983284     0.000000041281     
34.264999389648     0.650264978409     0.000000034190     
34.369998931885     0.644976973534     0.000000027479     
34.474998474121     0.639854013920     0.000000021485     
34.580001831055     0.634401023388     0.000000015407     
34.610000610352     0.624320983887     0.000000005185     
34.715000152588     0.619198024273     -0.000000000595     
34.819999694824     0.613910019398     -0.000000005224     
34.924999237061     0.608787000179     -0.000000010063     
35.029998779297     0.603498995304     -0.000000015237     
35.134998321533     0.598210990429     -0.000000020088     
