
Cycle 1
Physical Cycle 1
Step 1

Time (s),          Potential (V),         Current (A)
0.104999996722     0.001818999997     -0.000001162636     
0.209999993443     0.006945000030     -0.000001055902     
0.314999997616     0.012236000039     -0.000000964416     
0.419999986887     0.017526999116     -0.000000888177     
0.449999988079     0.027613999322     -0.000000833067     
0.555000007153     0.032905001193     -0.000000775482     
0.660000026226     0.038031000644     -0.000000722504     
0.764999985695     0.043322000653     -0.000000674900     
0.870000004768     0.048613000661     -0.000000629983     
0.975000023842     0.053904000670     -0.000000588138     
1.080000042915     0.059195000678     -0.000000550515     
1.184999942780     0.064487002790     -0.000000515196     
1.289999961853     0.069613002241     -0.000000481413     
1.394999980927     0.075069002807     -0.000000449933     
1.500000000000     0.080195002258     -0.000000420757     
1.605000019073     0.085486002266     -0.000000392732     
1.710000038147     0.090777002275     -0.000000366626     
1.815000057220     0.096069000661     -0.000000342824     
1.919999957085     0.101360000670     -0.000000319790     
2.025000095367     0.106486000121     -0.000000296756     
2.059999942780     0.116406999528     -0.000000265607     
2.164999961853     0.121697999537     -0.000000246764     
2.269999980927     0.126989006996     -0.000000229473     
2.375000000000     0.132280007005     -0.000000212603     
2.480000019073     0.137572005391     -0.000000195480     
2.585000038147     0.142697006464     -0.000000179995     
2.690000057220     0.147989004850     -0.000000165474     
2.795000076294     0.153280004859     -0.000000151122     
2.900000095367     0.158571004868     -0.000000137650     
3.005000114441     0.163697004318     -0.000000125480     
3.109999895096     0.168988004327     -0.000000112596     
3.214999914169     0.174279004335     -0.000000100216     
3.319999933243     0.179571002722     -0.000000089641     
3.424999952316     0.184862002730     -0.000000079149     
3.529999971390     0.189988002181     -0.000000068238     
3.634999990463     0.195279002190     -0.000000058082     
3.740000009537     0.200570002198     -0.000000048849     
3.845000028610     0.205861002207     -0.000000039281     
3.950000047684     0.211153000593     -0.000000030258     
4.054999828339     0.216444000602     -0.000000022494     
4.159999847412     0.221570000052     -0.000000014604     
4.264999866486     0.226861000061     -0.000000005833     
4.340000152588     0.234632000327     0.000000003803     
4.445000171661     0.239923998713     0.000000011284     
4.550000190735     0.245048999786     0.000000017746     
4.655000209808     0.250174999237     0.000000024097     
4.760000228882     0.255466997623     0.000000031272     
4.864999771118     0.260758012533     0.000000037486     
4.969999790192     0.265884011984     0.000000043014     
5.074999809265     0.271174997091     0.000000049159     
5.179999828339     0.276466012001     0.000000055220     
5.284999847412     0.281592011452     0.000000060260     
5.389999866486     0.286718010902     0.000000065383     
5.494999885559     0.292008996010     0.000000071299     
5.599999904633     0.297300010920     0.000000076525     
5.704999923706     0.302426010370     0.000000081164     
5.809999942780     0.307716995478     0.000000086359     
5.900000095367     0.315322995186     0.000000096775     
6.005000114441     0.320448994637     0.000000100636     
6.110000133514     0.325740009546     0.000000104581     
6.215000152588     0.331032007933     0.000000109407     
6.320000171661     0.336322993040     0.000000113981     
6.425000190735     0.341614007950     0.000000118052     
6.530000209808     0.346904993057     0.000000122962     
6.635000228882     0.352196991444     0.000000128334     
6.739999771118     0.357488006353     0.000000132656     
6.844999790192     0.362614005804     0.000000137063     
6.949999809265     0.367904990911     0.000000141805     
7.054999828339     0.373196005821     0.000000146757     
7.159999847412     0.378486990929     0.000000151206     
7.264999866486     0.383778989315     0.000000156703     
7.369999885559     0.388904005289     0.000000162033     
7.474999904633     0.394196003675     0.000000166482     
7.579999923706     0.399486988783     0.000000171224     
7.684999942780     0.404778003693     0.000000177729     
7.789999961853     0.410068988800     0.000000183310     
7.894999980927     0.415360003710     0.000000188346     
8.000000000000     0.420652002096     0.000000194557     
8.104999542236     0.425778001547     0.000000200810     
8.210000038147     0.431068986654     0.000000206140     
8.314999580383     0.436360001564     0.000000212897     
8.420000076294     0.441650986671     0.000000219779     
8.524999618530     0.446776986122     0.000000226494     
8.630000114441     0.452233999968     0.000000232831     
8.734999656677     0.457358986139     0.000000240259     
8.840000152588     0.462651014328     0.000000247519     
8.944999694824     0.467777013779     0.000000254569     
9.050000190735     0.473233014345     0.000000262333     
9.154999732971     0.478359013796     0.000000270097     
9.260000228882     0.483649998903     0.000000277189     
9.364999771118     0.488941013813     0.000000285079     
9.470000267029     0.494233012199     0.000000293682     
9.574999809265     0.499523997307     0.000000301992     
9.680000305176     0.504814982414     0.000000309839     
9.784999847412     0.509940981865     0.000000318904     
9.890000343323     0.515232026577     0.000000327423     
9.994999885559     0.520523011684     0.000000335397     
10.100000381470     0.525649011135     0.000000344714     
10.204999923706     0.530939996243     0.000000354576     
10.310000419617     0.536231994629     0.000000363221     
10.414999961853     0.541522979736     0.000000371992     
10.520000457764     0.546814024448     0.000000381686     
10.625000000000     0.551940023899     0.000000391590     
10.729999542236     0.557397007942     0.000000400949     
10.835000038147     0.562521994114     0.000000411231     
10.939999580383     0.567813992500     0.000000421345     
11.045000076294     0.573104977608     0.000000430745     
11.149999618530     0.578396022320     0.000000440481     
11.255000114441     0.583522021770     0.000000451519     
11.359999656677     0.588813006878     0.000000462136     
11.465000152588     0.594103991985     0.000000472586     
11.569999694824     0.599395990372     0.000000483833     
11.675000190735     0.604686975479     0.000000494828     
11.779999732971     0.609978020191     0.000000505236     
11.885000228882     0.615104019642     0.000000516987     
11.989999771118     0.620395004749     0.000000528947     
12.095000267029     0.625685989857     0.000000540026     
12.199999809265     0.630977988243     0.000000551483     
12.305000305176     0.636102974415     0.000000564115     
12.409999847412     0.641394972801     0.000000576369     
12.515000343323     0.646686017513     0.000000588162     
12.619999885559     0.651977002621     0.000000601046     
12.725000381470     0.657267987728     0.000000614265     
12.829999923706     0.662558972836     0.000000626435     
12.935000419617     0.667684972286     0.000000639697     
13.039999961853     0.673142015934     0.000000653672     
13.145000457764     0.678433001041     0.000000667395     
13.250000000000     0.683559000492     0.000000680740     
13.354999542236     0.688849985600     0.000000695009     
13.460000038147     0.694140970707     0.000000709236     
13.564999580383     0.699267029762     0.000000723378     
13.670000076294     0.704558014870     0.000000738444     
13.774999618530     0.709850013256     0.000000753972     
13.880000114441     0.715140998363     0.000000768702     
13.984999656677     0.720431983471     0.000000783558     
14.090000152588     0.725557982922     0.000000799296     
14.194999694824     0.730849027634     0.000000814991     
14.300000190735     0.736140012741     0.000000830603     
14.404999732971     0.741432011127     0.000000847390     
14.510000228882     0.746722996235     0.000000863924     
14.614999771118     0.751848995686     0.000000879158     
14.720000267029     0.757139980793     0.000000895525     
14.824999809265     0.762431025505     0.000000913361     
14.930000305176     0.767722010612     0.000000930358     
15.034999847412     0.773014008999     0.000000946557     
15.140000343323     0.778138995171     0.000000963637     
15.244999885559     0.783430993557     0.000000980801     
15.350000381470     0.788721978664     0.000000997084     
15.454999923706     0.793847978115     0.000001014459     
15.560000419617     0.799139022827     0.000001032210     
15.635000228882     0.807572007179     0.000001073390     
15.739999771118     0.812862992287     0.000001088746     
15.845000267029     0.818153977394     0.000001104870     
15.949999809265     0.823445022106     0.000001122146     
16.055000305176     0.828571021557     0.000001139805     
16.159999847412     0.833863019943     0.000001155929     
16.264999389648     0.839154005051     0.000001172437     
16.370000839233     0.844280004501     0.000001190096     
16.475000381470     0.849570989609     0.000001206988     
16.579999923706     0.855027019978     0.000001223496     
16.684999465942     0.860153019428     0.000001241155     
16.790000915527     0.865445017815     0.000001258047     
16.895000457764     0.870736002922     0.000001274939     
17.000000000000     0.876026988029     0.000001291062     
17.104999542236     0.881317973137     0.000001308722     
17.209999084473     0.886609017849     0.000001325230     
17.315000534058     0.891735017300     0.000001342505     
17.420000076294     0.897026002407     0.000001359781     
17.524999618530     0.902318000793     0.000001376673     
17.629999160767     0.907608985901     0.000001392796     
17.735000610352     0.912899971008     0.000001410456     
17.840000152588     0.918191015720     0.000001428499     
17.944999694824     0.923317015171     0.000001444239     
18.049999237061     0.928608000278     0.000001460747     
18.155000686646     0.933899998665     0.000001479558     
18.260000228882     0.939190983772     0.000001496834     
18.364999771118     0.944482028484     0.000001514109     
18.469999313354     0.949608027935     0.000001531769     
18.575000762939     0.955063998699     0.000001549812     
18.680000305176     0.960189998150     0.000001566320     
18.784999847412     0.965481996536     0.000001584364     
18.889999389648     0.970606982708     0.000001603559     
18.995000839233     0.975898981094     0.000001621218     
19.100000381470     0.981190025806     0.000001638110     
19.204999923706     0.986481010914     0.000001656153     
19.309999465942     0.991771996021     0.000001673813     
19.415000915527     0.997063994408     0.000001692240     
19.520000457764     1.002354979515     0.000001710667     
19.625000000000     1.007645964622     0.000001729479     
19.729999542236     1.012936949730     0.000001747138     
19.834999084473     1.018062949181     0.000001765565     
19.940000534058     1.023354053497     0.000001785144     
20.045000076294     1.028645038605     0.000001803955     
20.149999618530     1.033936977386     0.000001822767     
20.254999160767     1.039062976837     0.000001843114     
20.360000610352     1.044353961945     0.000001862309     
20.465000152588     1.049644947052     0.000001881504     
20.569999694824     1.054936051369     0.000001902234     
20.674999237061     1.060227036476     0.000001923733     
20.780000686646     1.065518975258     0.000001944080     
20.885000228882     1.070809960365     0.000001965578     
20.989999771118     1.075935959816     0.000001988228     
21.094999313354     1.081392049789     0.000002010879     
21.200000762939     1.086683034897     0.000002033145     
21.305000305176     1.091809034348     0.000002056563     
21.409999847412     1.097100973129     0.000002080365     
21.514999389648     1.102391958237     0.000002104935     
21.620000839233     1.107682943344     0.000002130272     
21.725000381470     1.112808942795     0.000002157529     
21.829999923706     1.118100047112     0.000002184402     
21.934999465942     1.123391032219     0.000002212043     
22.040000915527     1.128682971001     0.000002240452     
22.145000457764     1.133973956108     0.000002268861     
22.250000000000     1.139264941216     0.000002298421     
22.354999542236     1.144556045532     0.000002329517     
22.459999084473     1.149682044983     0.000002362533     
22.565000534058     1.154973030090     0.000002394013     
22.670000076294     1.160264015198     0.000002427028     
22.774999618530     1.165555953979     0.000002461580     
22.879999160767     1.170847058296     0.000002496899     
22.985000610352     1.175973057747     0.000002531450     
23.090000152588     1.181264042854     0.000002567153     
23.194999694824     1.186555027962     0.000002603623     
23.299999237061     1.191846013069     0.000002639326     
23.405000686646     1.196972012520     0.000002672726     
23.510000228882     1.195814967155     0.000002547190     
23.614999771118     1.190523982048     0.000002389790     
23.719999313354     1.185232043266     0.000002254656     
23.825000762939     1.179941058159     0.000002136799     
23.930000305176     1.174815058708     0.000002030074     
24.034999847412     1.169523954391     0.000001932563     
24.139999389648     1.164232969284     0.000001843114     
24.245000839233     1.158941984177     0.000001761342     
24.350000381470     1.153650045395     0.000001684562     
24.454999923706     1.148524999619     0.000001612772     
24.559999465942     1.143232941628     0.000001547125     
24.665000915527     1.137941956520     0.000001484933     
24.770000457764     1.132650971413     0.000001425428     
24.875000000000     1.127524971962     0.000001370530     
24.979999542236     1.122233986855     0.000001317168     
25.084999084473     1.116943001747     0.000001266493     
25.190000534058     1.111650943756     0.000001218505     
25.295000076294     1.106359958649     0.000001173972     
25.399999618530     1.101068973541     0.000001129440     
25.504999160767     1.095942974091     0.000001087210     
25.610000610352     1.090651988983     0.000001048052     
25.715000152588     1.085361003876     0.000001009662     
25.819999694824     1.080068945885     0.000000972040     
25.924999237061     1.074944019318     0.000000936721     
26.030000686646     1.069486975670     0.000000902170     
26.135000228882     1.064195990562     0.000000868002     
26.239999771118     1.058905005455     0.000000835755     
26.344999313354     1.053779006004     0.000000805426     
26.450000762939     1.048488020897     0.000000775098     
26.555000305176     1.043195962906     0.000000744770     
26.659999847412     1.037904977798     0.000000716361     
26.764999389648     1.032613992691     0.000000689104     
26.870000839233     1.027487993240     0.000000661463     
26.975000381470     1.022197008133     0.000000636893     
27.079999923706     1.016906023026     0.000000611556     
27.184999465942     1.011613965034     0.000000585834     
27.290000915527     1.006322979927     0.000000561649     
27.395000457764     1.001031994820     0.000000539382     
27.500000000000     0.995741009712     0.000000516732     
27.604999542236     0.990615010262     0.000000494850     
27.709999084473     0.985324025154     0.000000474119     
27.815000534058     0.980032026768     0.000000453388     
27.920000076294     0.974740982056     0.000000432274     
28.024999618530     0.969449996948     0.000000413079     
28.129999160767     0.964159011841     0.000000394651     
28.235000610352     0.959033012390     0.000000375840     
28.340000152588     0.953742027283     0.000000356645     
28.444999694824     0.948450028896     0.000000339369     
28.549999237061     0.943158984184     0.000000322478     
28.665000915527     0.931914985180     0.000000277189     
28.770000457764     0.926789999008     0.000000261494     
28.875000000000     0.921498000622     0.000000246302     
28.979999542236     0.916207015514     0.000000231026     
29.084999084473     0.910915970802     0.000000214323     
29.190000534058     0.905789971352     0.000000199593     
29.295000076294     0.900332987309     0.000000185115     
29.399999618530     0.895208001137     0.000000169755     
29.504999160767     0.889916002750     0.000000154353     
29.610000610352     0.884625017643     0.000000141050     
29.715000152588     0.879499018192     0.000000126865     
29.819999694824     0.874207973480     0.000000112261     
29.924999237061     0.868916988373     0.000000097950     
30.030000686646     0.863626003265     0.000000083849     
30.135000228882     0.858500003815     0.000000068573     
30.239999771118     0.853209018707     0.000000054641     
30.344999313354     0.847917020321     0.000000040875     
30.450000762939     0.842625975609     0.000000026775     
30.555000305176     0.837334990501     0.000000012002     
30.659999847412     0.832044005394     -0.000000001511     
30.764999389648     0.826918005943     -0.000000016073     
30.834999084473     0.818980991840     -0.000000034381     
30.940000534058     0.813854992390     -0.000000048854     
31.045000076294     0.808728992939     -0.000000061724     
31.149999618530     0.803602993488     -0.000000074179     
31.174999237061     0.792855978012     -0.000000104916     
31.280000686646     0.787563979626     -0.000000112470     
31.385000228882     0.782272994518     -0.000000121745     
31.489999771118     0.776982009411     -0.000000130432     
31.594999313354     0.771691024303     -0.000000137818     
31.700000762939     0.766565024853     -0.000000143148     
31.805000305176     0.761273980141     -0.000000148814     
31.909999847412     0.755981981754     -0.000000153220     
32.014999389648     0.750690996647     -0.000000156032     
32.119998931885     0.745564997196     -0.000000158760     
32.224998474121     0.740274012089     -0.000000162285     
32.330001831055     0.734983026981     -0.000000163670     
32.435001373291     0.729691982269     -0.000000164845     
32.540000915527     0.724400997162     -0.000000167279     
32.645000457764     0.719108998775     -0.000000169377     
32.750000000000     0.713982999325     -0.000000169965     
32.854999542236     0.708527028561     -0.000000170888     
32.959999084473     0.703566014767     -0.000000171559     
33.064998626709     0.698109984398     -0.000000171769     
33.169998168945     0.692818999290     -0.000000171266     
33.275001525879     0.687527000904     -0.000000171350     
33.380001068115     0.682236015797     -0.000000170258     
33.485000610352     0.676944971085     -0.000000168580     
33.590000152588     0.671818971634     -0.000000167405     
33.694999694824     0.666527986526     -0.000000166901     
33.799999237061     0.661071002483     -0.000000165139     
33.904998779297     0.655945003033     -0.000000164341     
34.009998321533     0.650654017925     -0.000000164047     
34.115001678467     0.645362973213     -0.000000163544     
34.220001220703     0.640071988106     -0.000000163502     
34.325000762939     0.634781002998     -0.000000165432     
34.430000305176     0.629489004612     -0.000000166859     
34.534999847412     0.624198019505     -0.000000167950     
34.639999389648     0.619072020054     -0.000000170133     
34.744998931885     0.613780975342     -0.000000173616     
34.849998474121     0.608489990234     -0.000000176344     
34.955001831055     0.603199005127     -0.000000179827     
35.060001373291     0.598073005676     -0.000000184275     
