
Cycle 1
Physical Cycle 1
Step 1

Time (s),          Potential (V),         Current (A)
0.104999996722     0.001983999973     -0.000003240132     
0.209999993443     0.007275000215     -0.000002275716     
0.314999997616     0.012567000464     -0.000001989822     
0.419999986887     0.017858000472     -0.000001799226     
0.535000026226     0.028936000541     -0.000001592809     
0.639999985695     0.034228000790     -0.000001486469     
0.745000004768     0.039519000798     -0.000001392029     
0.850000023842     0.044645000249     -0.000001306802     
0.954999983311     0.050101000816     -0.000001227719     
1.059999942780     0.055227000266     -0.000001154009     
1.164999961853     0.060518000275     -0.000001086443     
1.269999980927     0.065808996558     -0.000001023099     
1.375000000000     0.071101002395     -0.000000963978     
1.480000019073     0.076392002404     -0.000000907928     
1.585000038147     0.081518001854     -0.000000853798     
1.690000057220     0.086809001863     -0.000000801587     
1.794999957085     0.092100001872     -0.000000753600     
1.899999976158     0.097391001880     -0.000000708299     
2.005000114441     0.102683000267     -0.000000663383     
2.109999895096     0.107808999717     -0.000000620002     
2.214999914169     0.113099999726     -0.000000578924     
2.319999933243     0.118390999734     -0.000000539766     
2.424999952316     0.123681999743     -0.000000501760     
2.529999971390     0.128808006644     -0.000000466057     
2.634999990463     0.134265005589     -0.000000431122     
2.740000009537     0.139390006661     -0.000000396187     
2.845000028610     0.144682005048     -0.000000362787     
2.950000047684     0.149973005056     -0.000000331691     
3.055000066757     0.155264005065     -0.000000301363     
3.160000085831     0.160390004516     -0.000000271419     
3.194999933243     0.170476004481     -0.000000224731     
3.299999952316     0.175602003932     -0.000000197537     
3.404999971390     0.180893003941     -0.000000172189     
3.509999990463     0.186185002327     -0.000000146757     
3.615000009537     0.191476002336     -0.000000121158     
3.720000028610     0.196602001786     -0.000000097069     
3.825000047684     0.201893001795     -0.000000073232     
3.930000066757     0.207184001803     -0.000000049563     
4.034999847412     0.212310001254     -0.000000027824     
4.139999866486     0.217601001263     -0.000000006715     
4.244999885559     0.222892001271     0.000000015318     
4.349999904633     0.228183999658     0.000000037182     
4.454999923706     0.233474999666     0.000000057536     
4.559999942780     0.238600999117     0.000000077638     
4.664999961853     0.243891999125     0.000000096985     
4.769999980927     0.249182999134     0.000000116373     
4.875000000000     0.254308998585     0.000000136014     
4.980000019073     0.259600013494     0.000000155906     
5.085000038147     0.264892011881     0.000000174455     
5.190000057220     0.270182996988     0.000000191913     
5.295000076294     0.275474011898     0.000000210798     
5.400000095367     0.280600011349     0.000000229893     
5.505000114441     0.285890996456     0.000000248190     
5.610000133514     0.291182011366     0.000000266488     
5.715000152588     0.296472996473     0.000000284827     
5.820000171661     0.301764994860     0.000000302285     
5.925000190735     0.306890994310     0.000000320121     
6.030000209808     0.312182009220     0.000000339426     
6.135000228882     0.317472994328     0.000000358185     
6.239999771118     0.322764009237     0.000000375685     
6.344999790192     0.327890008688     0.000000393731     
6.449999809265     0.333180993795     0.000000412448     
6.554999828339     0.338472008705     0.000000431333     
6.659999847412     0.343764007092     0.000000450637     
6.764999866486     0.349054992199     0.000000470152     
6.869999885559     0.354180991650     0.000000488659     
6.974999904633     0.359472006559     0.000000507418     
7.079999923706     0.364762991667     0.000000527730     
7.184999942780     0.370054006577     0.000000548378     
7.289999961853     0.375346004963     0.000000568228     
7.394999980927     0.380472004414     0.000000588246     
7.500000000000     0.385762989521     0.000000608935     
7.605000019073     0.391054004431     0.000000629205     
7.710000038147     0.396344989538     0.000000650608     
7.815000057220     0.401470988989     0.000000673186     
7.920000076294     0.406762003899     0.000000694841     
8.024999618530     0.412052989006     0.000000715195     
8.130000114441     0.417178988457     0.000000737563     
8.234999656677     0.422470986843     0.000000761106     
8.340000152588     0.427762001753     0.000000784398     
8.444999694824     0.432888001204     0.000000807647     
8.550000190735     0.438178986311     0.000000831274     
8.654999732971     0.443470001221     0.000000854524     
8.760000228882     0.448760986328     0.000000878487     
8.864999771118     0.454052001238     0.000000904422     
8.970000267029     0.459343999624     0.000000929770     
9.074999809265     0.464469999075     0.000000954572     
9.180000305176     0.469761013985     0.000000980801     
9.284999847412     0.475051999092     0.000001007450     
9.300000190735     0.486295998096     0.000001080684     
9.404999732971     0.491587013006     0.000001107173     
9.510000228882     0.496877998114     0.000001134430     
9.614999771118     0.502169013023     0.000001164375     
9.720000267029     0.507461011410     0.000001196623     
9.824999809265     0.512587010860     0.000001228486     
9.930000305176     0.517877995968     0.000001261118     
10.034999847412     0.523168981075     0.000001294901     
10.140000343323     0.528460025787     0.000001329453     
10.244999885559     0.533751010895     0.000001365156     
10.350000381470     0.538877010345     0.000001404314     
10.454999923706     0.544333994389     0.000001443472     
10.560000419617     0.549459993839     0.000001483013     
10.664999961853     0.554750978947     0.000001525243     
10.770000457764     0.560042023659     0.000001569007     
10.875000000000     0.565333008766     0.000001613924     
10.979999542236     0.570625007153     0.000001660376     
11.085000038147     0.575749993324     0.000001709900     
11.189999580383     0.581041991711     0.000001757503     
11.295000076294     0.586332976818     0.000001807027     
11.399999618530     0.591624021530     0.000001860389     
11.505000114441     0.596750020981     0.000001915287     
11.609999656677     0.602207005024     0.000001969417     
11.715000152588     0.607331991196     0.000002025083     
11.819999694824     0.612623989582     0.000002081517     
11.925000190735     0.617914974689     0.000002139486     
12.029999732971     0.623040974140     0.000002197839     
12.135000228882     0.628332018852     0.000002257728     
12.239999771118     0.633623003960     0.000002316465     
12.345000267029     0.638913989067     0.000002375586     
12.449999809265     0.644205987453     0.000002435090     
12.555000305176     0.649496972561     0.000002495747     
12.659999847412     0.654788017273     0.000002555636     
12.765000343323     0.659914016724     0.000002615908     
12.869999885559     0.665205001831     0.000002674645     
12.975000381470     0.670495986938     0.000002733766     
13.079999923706     0.675786972046     0.000002791735     
13.185000419617     0.681078970432     0.000002850856     
13.289999961853     0.686370015144     0.000002907290     
13.395000457764     0.691661000252     0.000002962572     
13.500000000000     0.696951985359     0.000003017470     
13.604999542236     0.702243983746     0.000003073136     
13.710000038147     0.707369029522     0.000003126498     
13.814999580383     0.712661027908     0.000003180244     
13.920000076294     0.717952013016     0.000003232839     
14.024999618530     0.723242998123     0.000003283514     
14.130000114441     0.728533983231     0.000003333421     
14.234999656677     0.733825981617     0.000003383712     
14.340000152588     0.738951027393     0.000003433619     
14.444999694824     0.744243025780     0.000003482375     
14.550000190735     0.749534010887     0.000003529211     
14.654999732971     0.754824995995     0.000003575279     
14.760000228882     0.760115981102     0.000003621731     
14.864999771118     0.765407025814     0.000003669719     
14.970000267029     0.770533025265     0.000003716171     
15.074999809265     0.775825023651     0.000003761088     
15.180000305176     0.781116008759     0.000003804469     
15.284999847412     0.786406993866     0.000003849769     
15.390000343323     0.791532993317     0.000003894302     
15.494999885559     0.796989023685     0.000003938067     
15.600000381470     0.802115023136     0.000003981832     
15.704999923706     0.807406008244     0.000004025980     
15.810000419617     0.812698006630     0.000004068593     
15.914999961853     0.817988991737     0.000004111974     
16.020000457764     0.823279976845     0.000004156123     
16.125000000000     0.828571021557     0.000004199888     
16.229999542236     0.833697021008     0.000004242117     
16.334999084473     0.838988006115     0.000004283962     
16.440000534058     0.844280004501     0.000004328495     
16.545000076294     0.849570989609     0.000004371876     
16.649999618530     0.854696989059     0.000004415257     
16.754999160767     0.859987974167     0.000004459022     
16.860000610352     0.865279018879     0.000004501635     
16.965000152588     0.870570003986     0.000004545016     
17.069999694824     0.875862002373     0.000004589932     
17.174999237061     0.881152987480     0.000004635233     
17.280000686646     0.886278986931     0.000004678998     
17.385000228882     0.891735017300     0.000004723914     
17.489999771118     0.896861016750     0.000004768831     
17.594999313354     0.902152001858     0.000004812212     
17.700000762939     0.907444000244     0.000004859048     
17.805000305176     0.912568986416     0.000004906268     
17.909999847412     0.918025970459     0.000004951568     
18.014999389648     0.923152029514     0.000004995333     
18.120000839233     0.928443014622     0.000005042169     
18.225000381470     0.933733999729     0.000005090541     
18.329999923706     0.938859999180     0.000005136993     
18.434999465942     0.944150984287     0.000005183445     
18.540000915527     0.949442982674     0.000005231433     
18.645000457764     0.954734027386     0.000005279036     
18.750000000000     0.960025012493     0.000005326256     
18.854999542236     0.965315997601     0.000005376164     
18.959999084473     0.970606982708     0.000005425303     
19.065000534058     0.975898981094     0.000005474443     
19.170000076294     0.981024980545     0.000005523966     
19.274999618530     0.986316025257     0.000005573489     
19.379999160767     0.991607010365     0.000005622629     
19.485000610352     0.996897995472     0.000005673688     
19.590000152588     1.002189040184     0.000005722827     
19.694999694824     1.007315039635     0.000005771199     
19.799999237061     1.012606024742     0.000005819570     
19.905000686646     1.017897963524     0.000005869862     
20.010000228882     1.023188948631     0.000005919769     
20.114999771118     1.028480052948     0.000005966989     
20.219999313354     1.033606052399     0.000006014977     
20.325000762939     1.038897037506     0.000006063348     
20.430000305176     1.044188022614     0.000006110952     
20.534999847412     1.049479961395     0.000006158556     
20.639999389648     1.054770946503     0.000006207695     
20.745000839233     1.059896945953     0.000006256835     
20.850000381470     1.065353035927     0.000006305974     
20.954999923706     1.070644021034     0.000006354346     
21.059999465942     1.075770020485     0.000006403101     
21.165000915527     1.081061959267     0.000006457616     
21.270000457764     1.086352944374     0.000006508675     
21.375000000000     1.091644048691     0.000006558966     
21.479999542236     1.096770048141     0.000006612328     
21.584999084473     1.102061033249     0.000006666458     
21.690000534058     1.107352018356     0.000006724811     
21.795000076294     1.112643957138     0.000006781245     
21.899999618530     1.117934942245     0.000006838830     
22.004999160767     1.123226046562     0.000006899103     
22.110000610352     1.128352046013     0.000006961679     
22.215000152588     1.133643031120     0.000007025407     
22.319999694824     1.138934016228     0.000007091054     
22.424999237061     1.144225001335     0.000007159772     
22.530000686646     1.149517059326     0.000007229259     
22.635000228882     1.154643058777     0.000007299897     
22.739999771118     1.159934043884     0.000007374757     
22.844999313354     1.165225028992     0.000007451922     
22.950000762939     1.170516014099     0.000007531006     
23.055000305176     1.175806999207     0.000007612777     
23.159999847412     1.181099057198     0.000007695699     
23.264999389648     1.186223983765     0.000007783229     
23.370000839233     1.191516041756     0.000007873830     
23.475000381470     1.196807026863     0.000007962895     
23.579999923706     1.195979952812     0.000007718350     
23.684999465942     1.190688967705     0.000007323698     
23.790000915527     1.185397982597     0.000006973580     
23.895000457764     1.180271983147     0.000006656093     
24.000000000000     1.174980998039     0.000006365095     
24.104999542236     1.169689059258     0.000006097515     
24.209999084473     1.164564013481     0.000005849515     
24.315000534058     1.159271955490     0.000005619941     
24.420000076294     1.153980970383     0.000005408027     
24.524999618530     1.148689985275     0.000005213005     
24.629999160767     1.143399000168     0.000005029500     
24.735000610352     1.138273000717     0.000004857896     
24.840000152588     1.132982015610     0.000004697809     
24.944999694824     1.127689957619     0.000004550007     
25.049999237061     1.122398972511     0.000004409882     
25.155000686646     1.117272973061     0.000004279356     
25.260000228882     1.111981987953     0.000004156891     
25.364999771118     1.106691002846     0.000004040569     
25.469999313354     1.101400017738     0.000003930005     
25.575000762939     1.096107959747     0.000003827887     
25.680000305176     1.090983033180     0.000003731144     
25.784999847412     1.085690975189     0.000003638623     
25.889999389648     1.080399990082     0.000003550710     
25.995000839233     1.075109004974     0.000003467019     
26.100000381470     1.069983005524     0.000003387551     
26.204999923706     1.064692020416     0.000003312306     
26.309999465942     1.059401035309     0.000003240517     
26.415000915527     1.054108977318     0.000003171414     
26.520000457764     1.048817992210     0.000003104615     
26.625000000000     1.043527007103     0.000003040888     
26.729999542236     1.038236021996     0.000002979847     
26.834999084473     1.033110022545     0.000002921494     
26.940000534058     1.027819037437     0.000002865445     
27.045000076294     1.022526979446     0.000002810547     
27.149999618530     1.017235994339     0.000002756416     
27.254999160767     1.011945009232     0.000002704590     
27.360000610352     1.006819009781     0.000002655834     
27.465000152588     1.001528024673     0.000002608230     
27.569999694824     0.996236979961     0.000002559859     
27.674999237061     0.990945994854     0.000002513790     
27.780000686646     0.985653996468     0.000002468874     
27.885000228882     0.980363011360     0.000002424725     
27.989999771118     0.975072026253     0.000002382496     
28.094999313354     0.969946026802     0.000002341802     
28.200000762939     0.964654982090     0.000002299573     
28.305000305176     0.959363996983     0.000002258495     
28.409999847412     0.954071998596     0.000002218954     
28.514999389648     0.948781013489     0.000002181715     
28.620000839233     0.943655014038     0.000002143325     
28.725000381470     0.938364028931     0.000002105702     
28.829999923706     0.933072984219     0.000002068080     
28.934999465942     0.927781999111     0.000002031225     
29.040000915527     0.922490000725     0.000001995906     
29.145000457764     0.917365014553     0.000001961739     
29.250000000000     0.912073016167     0.000001926804     
29.354999542236     0.906781971455     0.000001891101     
29.459999084473     0.901490986347     0.000001856550     
29.565000534058     0.896200001240     0.000001823534     
29.670000076294     0.891074001789     0.000001789367     
29.774999618530     0.885783016682     0.000001756736     
29.879999160767     0.880491018295     0.000001724488     
29.985000610352     0.875199973583     0.000001691088     
30.090000152588     0.869908988476     0.000001657689     
30.194999694824     0.864618003368     0.000001626977     
30.299999237061     0.859327018261     0.000001596265     
30.405000686646     0.854201018810     0.000001564401     
30.510000228882     0.848909020424     0.000001532153     
30.614999771118     0.843617975712     0.000001501057     
30.719999313354     0.838326990604     0.000001470345     
30.825000762939     0.833036005497     0.000001440400     
30.930000305176     0.827745020390     0.000001410456     
31.034999847412     0.822453022003     0.000001380512     
31.139999389648     0.817327976227     0.000001349416     
31.245000839233     0.812035977840     0.000001319855     
31.350000381470     0.806744992733     0.000001291062     
31.454999923706     0.801454007626     0.000001261118     
31.559999465942     0.796328008175     0.000001232325     
31.665000915527     0.791037023067     0.000001203533     
31.770000457764     0.785745978355     0.000001172821     
31.875000000000     0.780453979969     0.000001142876     
31.979999542236     0.775162994862     0.000001114851     
32.084999084473     0.769872009754     0.000001086059     
32.189998626709     0.764581024647     0.000001055347     
32.294998168945     0.759455025196     0.000001024634     
32.400001525879     0.754163980484     0.000000995458     
32.505001068115     0.748871982098     0.000000966281     
32.610000610352     0.743580996990     0.000000935569     
32.715000152588     0.738290011883     0.000000905625     
32.819999694824     0.733164012432     0.000000873377     
32.924999237061     0.727873027325     0.000000841129     
33.029998779297     0.722581982613     0.000000809265     
33.134998321533     0.717289984226     0.000000778937     
33.240001678467     0.711998999119     0.000000747457     
33.345001220703     0.706708014011     0.000000716745     
33.450000762939     0.701417028904     0.000000685649     
33.555000305176     0.696291029453     0.000000655705     
33.659999847412     0.690999984741     0.000000628831     
33.764999389648     0.685708999634     0.000000604646     
33.869998931885     0.680417001247     0.000000582379     
33.974998474121     0.675126016140     0.000000561265     
34.080001831055     0.669834971428     0.000000545141     
34.185001373291     0.664543986320     0.000000533624     
34.290000915527     0.659251987934     0.000000525178     
34.395000457764     0.653961002827     0.000000520187     
34.500000000000     0.648835003376     0.000000517884     
34.604999542236     0.643544018269     0.000000515580     
34.709999084473     0.638252973557     0.000000513661     
34.814998626709     0.632961988449     0.000000512509     
34.919998168945     0.627669990063     0.000000509054     
35.025001525879     0.622379004955     0.000000502144     
35.130001068115     0.617253005505     0.000000492546     
35.235000610352     0.611962020397     0.000000480645     
35.340000152588     0.606670975685     0.000000467209     
