
Cycle 1
Physical Cycle 1
Step 1

Time (s),          Potential (V),         Current (A)
0.104999996722     0.002479000017     0.000000387533     
0.209999993443     0.007766999770     0.000000491131     
0.314999997616     0.013055000454     0.000000587055     
0.419999986887     0.018342999741     0.000000679142     
0.449999988079     0.028257999569     0.000000908095     
0.555000007153     0.033546000719     0.000000991000     
0.660000026226     0.038833998144     0.000001071976     
0.764999985695     0.044121999294     0.000001152182     
0.870000004768     0.049244999886     0.000001228917     
0.975000023842     0.054533001035     0.000001304109     
1.080000042915     0.059820998460     0.000001378145     
1.184999942780     0.065108999610     0.000001449096     
1.289999961853     0.070396997035     0.000001518890     
1.394999980927     0.075520001352     0.000001587913     
1.500000000000     0.080807998776     0.000001655008     
1.605000019073     0.086096003652     0.000001720561     
1.710000038147     0.091384001076     0.000001787270     
1.815000057220     0.096671998501     0.000001852822     
1.919999957085     0.101795002818     0.000001917989     
2.025000095367     0.107083000243     0.000001982771     
2.130000114441     0.112370997667     0.000002047552     
2.234999895096     0.117659002542     0.000002110791     
2.339999914169     0.122946999967     0.000002172873     
2.444999933243     0.128234997392     0.000002235341     
2.549999952316     0.133358001709     0.000002295880     
2.654999971390     0.138646006584     0.000002354492     
2.759999990463     0.143933996558     0.000002412332     
2.865000009537     0.149222001433     0.000002469402     
2.970000028610     0.154510006309     0.000002523386     
3.075000047684     0.159797996283     0.000002576599     
3.180000066757     0.165086001158     0.000002630198     
3.285000085831     0.170209005475     0.000002681483     
3.390000104904     0.175496995449     0.000002730840     
3.494999885559     0.180785000324     0.000002780583     
3.599999904633     0.186073005199     0.000002829169     
3.704999923706     0.191360995173     0.000002878526     
3.809999942780     0.196483999491     0.000002927884     
3.914999961853     0.201772004366     0.000002975313     
4.019999980927     0.207059994340     0.000003021200     
4.125000000000     0.212347999215     0.000003067857     
4.230000019073     0.217636004090     0.000003113359     
4.335000038147     0.222923994064     0.000003155775     
4.440000057220     0.228211998940     0.000003197420     
4.545000076294     0.233335003257     0.000003238680     
4.650000095367     0.238622993231     0.000003279554     
4.755000114441     0.243910998106     0.000003318114     
4.860000133514     0.249199002981     0.000003356674     
4.965000152588     0.254487007856     0.000003394849     
5.070000171661     0.259775996208     0.000003429939     
5.175000190735     0.264898002148     0.000003465414     
5.280000209808     0.270186007023     0.000003501661     
5.385000228882     0.275474011898     0.000003538679     
5.489999771118     0.280761986971     0.000003572226     
5.594999790192     0.286051005125     0.000003605002     
5.699999809265     0.291339010000     0.000003638550     
5.804999828339     0.296627014875     0.000003670169     
5.909999847412     0.301914989948     0.000003701403     
6.014999866486     0.307036995888     0.000003732637     
6.119999885559     0.312326014042     0.000003762328     
6.224999904633     0.317613989115     0.000003794334     
6.329999923706     0.322901993990     0.000003825953     
6.434999942780     0.328023999929     0.000003856416     
6.539999961853     0.333312004805     0.000003887649     
6.644999980927     0.338600993156     0.000003921583     
6.750000000000     0.343888998032     0.000003952816     
6.855000019073     0.349177002907     0.000003986749     
6.960000038147     0.354465007782     0.000004022996     
7.065000057220     0.359753012657     0.000004058472     
7.170000076294     0.365040987730     0.000004092790     
7.275000095367     0.370164006948     0.000004126338     
7.380000114441     0.375452011824     0.000004160271     
7.485000133514     0.380739986897     0.000004192661     
7.590000152588     0.386027991772     0.000004225052     
7.695000171661     0.391151010990     0.000004259371     
7.800000190735     0.396604001522     0.000004294846     
7.905000209808     0.401892006397     0.000004332635     
8.010000228882     0.407014995813     0.000004369268     
8.114999771118     0.412303000689     0.000004408985     
8.220000267029     0.417591005564     0.000004445231     
8.324999809265     0.422879010439     0.000004483792     
8.430000305176     0.428166985512     0.000004519267     
8.534999847412     0.433454990387     0.000004555128     
8.640000343323     0.438742995262     0.000004591375     
8.744999885559     0.443866014481     0.000004630321     
8.850000381470     0.449153989553     0.000004668110     
8.954999923706     0.454441994429     0.000004711297     
9.060000419617     0.459729999304     0.000004751786     
9.164999961853     0.465018004179     0.000004790732     
9.270000457764     0.470140993595     0.000004826978     
9.375000000000     0.475428998470     0.000004867852     
9.479999542236     0.480717003345     0.000004908726     
9.585000038147     0.486005008221     0.000004944587     
9.689999580383     0.491293013096     0.000004983919     
9.795000076294     0.496580988169     0.000005025950     
9.899999618530     0.501703977585     0.000005066052     
10.005000114441     0.507157027721     0.000005104227     
10.109999656677     0.512279987335     0.000005143558     
10.215000152588     0.517567992210     0.000005184047     
10.319999694824     0.522855997086     0.000005222607     
10.425000190735     0.528144001961     0.000005261939     
10.529999732971     0.533267021179     0.000005305512     
10.635000228882     0.538720011711     0.000005344843     
10.739999771118     0.543842971325     0.000005389573     
10.845000267029     0.549130976200     0.000005434303     
10.949999809265     0.554253995419     0.000005474791     
11.055000305176     0.559706985950     0.000005517979     
11.159999847412     0.564994990826     0.000005560010     
11.265000343323     0.570282995701     0.000005603968     
11.369999885559     0.575406014919     0.000005647542     
11.475000381470     0.580694019794     0.000005689572     
11.579999923706     0.585982024670     0.000005733145     
11.685000419617     0.591270029545     0.000005777490     
11.789999961853     0.596557974815     0.000005824919     
11.895000457764     0.601845979691     0.000005870420     
12.000000000000     0.606968998909     0.000005913993     
12.104999542236     0.612257003784     0.000005960266     
12.210000038147     0.617545008659     0.000006004610     
12.314999580383     0.622833013535     0.000006051268     
12.420000076294     0.627955973148     0.000006100239     
12.524999618530     0.633409023285     0.000006148825     
12.630000114441     0.638531982899     0.000006196255     
12.734999656677     0.643819987774     0.000006242141     
12.840000152588     0.649107992649     0.000006287257     
12.944999694824     0.654395997524     0.000006334300     
13.050000190735     0.659684002399     0.000006378645     
13.154999732971     0.664972007275     0.000006425688     
13.260000228882     0.670260012150     0.000006471575     
13.364999771118     0.675548970699     0.000006518619     
13.470000267029     0.680670976639     0.000006568362     
13.574999809265     0.685958981514     0.000006615405     
13.680000305176     0.691246986389     0.000006664762     
13.784999847412     0.696534991264     0.000006709492     
13.890000343323     0.701824009418     0.000006754608     
13.994999885559     0.706946015358     0.000006800495     
14.100000381470     0.712234020233     0.000006846381     
14.204999923706     0.717522025108     0.000006894967     
14.310000419617     0.722809970379     0.000006946252     
14.414999961853     0.728098988533     0.000006999080     
14.520000457764     0.733386993408     0.000007047666     
14.625000000000     0.738508999348     0.000007095481     
14.729999542236     0.743797004223     0.000007144067     
14.835000038147     0.749086022377     0.000007186869     
14.939999580383     0.754374027252     0.000007233912     
15.045000076294     0.759661972523     0.000007281341     
15.149999618530     0.764949977398     0.000007327614     
15.255000114441     0.770237982273     0.000007377357     
15.359999656677     0.775361001492     0.000007423243     
15.465000152588     0.780649006367     0.000007467588     
15.569999694824     0.785937011242     0.000007518487     
15.675000190735     0.791225016117     0.000007567844     
15.779999732971     0.796513020992     0.000007617202     
15.885000228882     0.801801025867     0.000007663088     
15.989999771118     0.806923985481     0.000007710903     
16.094999313354     0.812211990356     0.000007762188     
16.200000762939     0.817499995232     0.000007813088     
16.305000305176     0.822788000107     0.000007862060     
16.409999847412     0.828076004982     0.000007904862     
16.514999389648     0.833199024200     0.000007952291     
16.620000839233     0.838487029076     0.000007999334     
16.725000381470     0.843774974346     0.000008048306     
16.829999923706     0.849062979221     0.000008098049     
16.934999465942     0.854350984097     0.000008147020     
17.040000915527     0.859638988972     0.000008195606     
17.145000457764     0.864926993847     0.000008245349     
17.250000000000     0.870214998722     0.000008295092     
17.354999542236     0.875338017941     0.000008349847     
17.459999084473     0.880626022816     0.000008404217     
17.565000534058     0.885914027691     0.000008457431     
17.670000076294     0.891201972961     0.000008511415     
17.774999618530     0.896489977837     0.000008563857     
17.879999160767     0.901777982712     0.000008614757     
17.985000610352     0.906901001930     0.000008663728     
18.090000152588     0.912189006805     0.000008713857     
18.194999694824     0.917477011681     0.000008765142     
18.299999237061     0.922765016556     0.000008822597     
18.405000686646     0.928053021431     0.000008878509     
18.510000228882     0.933175981045     0.000008930951     
18.614999771118     0.938463985920     0.000008984164     
18.719999313354     0.943751990795     0.000009037763     
18.825000762939     0.949039995670     0.000009092519     
18.930000305176     0.954328000546     0.000009143804     
19.034999847412     0.959616005421     0.000009191233     
19.139999389648     0.964904010296     0.000009246374     
19.245000839233     0.970192015171     0.000009300744     
19.350000381470     0.975314974785     0.000009354729     
19.454999923706     0.980602979660     0.000009407556     
19.559999465942     0.985890984535     0.000009457685     
19.665000915527     0.991178989410     0.000009508584     
19.770000457764     0.996466994286     0.000009557942     
19.885000228882     1.008034944534     0.000009607748     
19.989999771118     1.013322949409     0.000009661465     
20.094999313354     1.018610954285     0.000009711346     
20.200000762939     1.023898959160     0.000009765063     
20.305000305176     1.029021978378     0.000009818781     
20.409999847412     1.034309983253     0.000009872498     
20.514999389648     1.039597988129     0.000009922379     
20.620000839233     1.044885993004     0.000009979933     
20.725000381470     1.050173997879     0.000010037487     
20.829999923706     1.055462002754     0.000010091205     
20.934999465942     1.060750007629     0.000010152596     
21.040000915527     1.065873026848     0.000010206314     
21.145000457764     1.071161031723     0.000010263868     
21.250000000000     1.076449036598     0.000010325259     
21.354999542236     1.081737041473     0.000010382814     
21.459999084473     1.087025046349     0.000010440368     
21.565000534058     1.092313051224     0.000010497923     
21.670000076294     1.097435951233     0.000010559314     
21.774999618530     1.102723956108     0.000010620705     
21.879999160767     1.108011960983     0.000010682097     
21.985000610352     1.113299965858     0.000010743488     
22.090000152588     1.118587970734     0.000010804879     
22.194999694824     1.123875975609     0.000010866271     
22.299999237061     1.129163980484     0.000010931499     
22.405000686646     1.134451985359     0.000010996727     
22.510000228882     1.139739990234     0.000011065793     
22.614999771118     1.144863009453     0.000011131021     
22.719999313354     1.150151014328     0.000011203923     
22.825000762939     1.155439019203     0.000011272988     
22.930000305176     1.160727024078     0.000011342054     
23.034999847412     1.166015028954     0.000011414956     
23.139999389648     1.171303033829     0.000011491695     
23.245000839233     1.176426053047     0.000011564597     
23.350000381470     1.181714057922     0.000011645174     
23.454999923706     1.187001943588     0.000011718076     
23.559999465942     1.192289948463     0.000011794815     
23.665000915527     1.197577953339     0.000011871554     
23.770000457764     1.196751952171     0.000011790978     
23.875000000000     1.191463947296     0.000011625989     
23.979999542236     1.186175942421     0.000011476347     
24.084999084473     1.180888056755     0.000011338217     
24.190000534058     1.175765037537     0.000011207760     
24.295000076294     1.170312047005     0.000011084977     
24.399999618530     1.165024042130     0.000010973706     
24.504999160767     1.159901022911     0.000010862434     
24.610000610352     1.154613018036     0.000010762673     
24.715000152588     1.149325013161     0.000010659075     
24.819999694824     1.144037008286     0.000010563151     
24.924999237061     1.138749003410     0.000010471064     
25.030000686646     1.133625984192     0.000010378977     
25.135000228882     1.128337979317     0.000010294564     
25.239999771118     1.123049974442     0.000010213988     
25.344999313354     1.117761969566     0.000010137248     
25.450000762939     1.112473964691     0.000010060509     
25.555000305176     1.107185959816     0.000009979933     
25.659999847412     1.101897954941     0.000009907031     
25.764999389648     1.096609950066     0.000009834128     
25.870000839233     1.091321945190     0.000009765063     
25.975000381470     1.086199045181     0.000009699835     
26.079999923706     1.080911040306     0.000009634607     
26.184999465942     1.075623035431     0.000009573215     
26.290000915527     1.070335030556     0.000009511824     
26.395000457764     1.065047025681     0.000009450432     
26.500000000000     1.059759020805     0.000009389041     
26.604999542236     1.054636001587     0.000009331487     
26.709999084473     1.049347996712     0.000009273932     
26.815000534058     1.044059991837     0.000009216378     
26.920000076294     1.038771986961     0.000009154987     
27.024999618530     1.033483982086     0.000009101269     
27.129999160767     1.028195023537     0.000009047552     
27.235000610352     1.022907018661     0.000008989997     
27.340000152588     1.017619013786     0.000008936280     
27.444999694824     1.012496948242     0.000008882562     
27.549999237061     1.007208943367     0.000008828845     
27.655000686646     1.001919984818     0.000008775128     
27.760000228882     0.996631979942     0.000008721410     
27.864999771118     0.991509974003     0.000008671530     
27.969999313354     0.986056029797     0.000008617812     
28.075000762939     0.980933010578     0.000008567932     
28.180000305176     0.975645005703     0.000008521888     
28.284999847412     0.970357000828     0.000008472008     
28.389999389648     0.965068995953     0.000008429801     
28.495000839233     0.959946990013     0.000008383758     
28.600000381470     0.954492986202     0.000008333877     
28.704999923706     0.949204981327     0.000008287834     
28.809999465942     0.944082021713     0.000008237953     
28.915000915527     0.938794016838     0.000008195747     
29.020000457764     0.933506011963     0.000008145866     
29.125000000000     0.928218007088     0.000008099823     
29.229999542236     0.922930002213     0.000008053779     
29.334999084473     0.917806982994     0.000008011572     
29.440000534058     0.912353992462     0.000007965529     
29.545000076294     0.907230973244     0.000007923322     
29.649999618530     0.901943027973     0.000007881116     
29.754999160767     0.896655023098     0.000007835072     
29.860000610352     0.891367018223     0.000007792866     
29.965000152588     0.886079013348     0.000007746822     
30.069999694824     0.880791008472     0.000007704616     
30.174999237061     0.875503003597     0.000007658572     
30.280000686646     0.870379984379     0.000007620203     
30.385000228882     0.864926993847     0.000007577996     
30.489999771118     0.859803974628     0.000007535789     
30.594999313354     0.854516029358     0.000007493583     
30.700000762939     0.849228024483     0.000007455213     
30.805000305176     0.843940019608     0.000007416844     
30.909999847412     0.838652014732     0.000007374637     
31.014999389648     0.833528995514     0.000007336268     
31.120000839233     0.828240990639     0.000007294061     
31.225000381470     0.822952985764     0.000007259528     
31.329999923706     0.817664980888     0.000007217322     
31.434999465942     0.812376976013     0.000007175115     
31.540000915527     0.807088971138     0.000007129072     
31.645000457764     0.801801025867     0.000007090702     
31.750000000000     0.796678006649     0.000007052332     
31.854999542236     0.791390001774     0.000007010126     
31.959999084473     0.786101996899     0.000006967919     
32.064998626709     0.780813992023     0.000006929550     
32.169998168945     0.775525987148     0.000006891180     
32.275001525879     0.770237982273     0.000006848974     
32.380001068115     0.765115022659     0.000006810604     
32.485000610352     0.759827017784     0.000006772234     
32.590000152588     0.754374027252     0.000006730028     
32.694999694824     0.749251008034     0.000006691658     
32.799999237061     0.743963003159     0.000006653289     
32.904998779297     0.738674998283     0.000006611082     
33.009998321533     0.733386993408     0.000006572712     
33.115001678467     0.728263974190     0.000006530506     
33.220001220703     0.722976028919     0.000006492136     
33.325000762939     0.717688024044     0.000006453767     
33.430000305176     0.712400019169     0.000006415397     
33.534999847412     0.707112014294     0.000006377028     
33.639999389648     0.701824009418     0.000006338658     
33.744998931885     0.696534991264     0.000006300288     
33.849998474121     0.691246986389     0.000006261919     
33.955001831055     0.685958981514     0.000006223549     
34.060001373291     0.680836975574     0.000006185180     
34.165000915527     0.675548970699     0.000006146810     
34.270000457764     0.670260012150     0.000006104603     
34.375000000000     0.664972007275     0.000006066234     
34.479999542236     0.659684002399     0.000006027864     
34.584999084473     0.654395997524     0.000005985658     
34.689998626709     0.649107992649     0.000005947288     
34.794998168945     0.643984973431     0.000005912755     
34.900001525879     0.638531982899     0.000005874386     
35.005001068115     0.633409023285     0.000005836016     
35.110000610352     0.628121018410     0.000005793810     
35.215000152588     0.622833013535     0.000005755440     
35.319999694824     0.617545008659     0.000005717070     
35.424999237061     0.612421989441     0.000005678701     
35.529998779297     0.607133984566     0.000005640331     
