
Cycle 1
Physical Cycle 1
Step 1

Time (s),          Potential (V),         Current (A)
0.104999996722     0.002318999963     -0.000000106997     
0.209999993443     0.007619999815     -0.000000099354     
0.314999997616     0.012755000032     -0.000000087890     
0.419999986887     0.018222000450     -0.000000084069     
0.449999988079     0.028161000460     -0.000000074395     
0.555000007153     0.033628001809     -0.000000070155     
0.660000026226     0.038763001561     -0.000000064759     
0.764999985695     0.044064000249     -0.000000059748     
0.795000016689     0.054168999195     -0.000000050962     
0.899999976158     0.059305001050     -0.000000047811     
1.004999995232     0.064606003463     -0.000000044156     
1.110000014305     0.069907002151     -0.000000040123     
1.215000033379     0.075208000839     -0.000000036845     
1.320000052452     0.080508999527     -0.000000033568     
1.424999952316     0.085643999279     -0.000000029955     
1.529999971390     0.090944997966     -0.000000026888     
1.634999990463     0.096245996654     -0.000000024998     
1.720000028610     0.103534996510     -0.000000020989     
1.825000047684     0.108836002648     -0.000000017887     
1.929999947548     0.113971002400     -0.000000015521     
2.035000085831     0.119272001088     -0.000000013098     
2.140000104904     0.124572999775     -0.000000010212     
2.244999885559     0.129874005914     -0.000000008327     
2.349999904633     0.135009005666     -0.000000006871     
2.454999923706     0.140310004354     -0.000000004308     
2.559999942780     0.145611003041     -0.000000001570     
2.664999961853     0.150912001729     0.000000000155     
2.769999980927     0.156047001481     0.000000001832     
2.875000000000     0.161348000169     0.000000004270     
2.980000019073     0.166648998857     0.000000005749     
3.085000038147     0.171784996986     0.000000007300     
3.190000057220     0.177085995674     0.000000010132     
3.295000076294     0.182220995426     0.000000012339     
3.400000095367     0.187521994114     0.000000013439     
3.505000114441     0.192822992802     0.000000014994     
3.609999895096     0.198124006391     0.000000017258     
3.714999914169     0.203259006143     0.000000018805     
3.819999933243     0.208560004830     0.000000020731     
3.924999952316     0.213861003518     0.000000023166     
4.030000209808     0.219162002206     0.000000024967     
4.135000228882     0.224463000894     0.000000025661     
4.239999771118     0.229598000646     0.000000027667     
4.344999790192     0.234898999333     0.000000029931     
4.449999809265     0.240199998021     0.000000031467     
4.554999828339     0.245335996151     0.000000033204     
4.659999847412     0.250636994839     0.000000035456     
4.764999866486     0.255937993526     0.000000036666     
4.869999885559     0.261072993279     0.000000037891     
4.974999904633     0.266373991966     0.000000040082     
5.079999923706     0.271508991718     0.000000042509     
5.184999942780     0.276975989342     0.000000043791     
5.289999961853     0.282110989094     0.000000045080     
5.394999980927     0.287411987782     0.000000047378     
5.500000000000     0.292712986469     0.000000048797     
5.605000019073     0.298013985157     0.000000050480     
5.710000038147     0.303149014711     0.000000053188     
5.815000057220     0.308450013399     0.000000055274     
5.920000076294     0.313751012087     0.000000056222     
6.025000095367     0.318886995316     0.000000058095     
6.130000114441     0.324187994003     0.000000060541     
6.235000133514     0.329488992691     0.000000062342     
6.340000152588     0.334789991379     0.000000064481     
6.445000171661     0.339924991131     0.000000067275     
6.550000190735     0.345225989819     0.000000069259     
6.655000209808     0.350360989571     0.000000070366     
6.760000228882     0.355661988258     0.000000072907     
6.864999771118     0.360962986946     0.000000075770     
6.969999790192     0.366263985634     0.000000077764     
7.074999809265     0.371398985386     0.000000079968     
7.179999828339     0.376700013876     0.000000082785     
7.284999847412     0.382001012564     0.000000084522     
7.389999866486     0.387136995792     0.000000086486     
7.434999942780     0.397076010704     0.000000092597     
7.539999961853     0.402377009392     0.000000094866     
7.644999980927     0.407512009144     0.000000096420     
7.750000000000     0.412813007832     0.000000099151     
7.855000019073     0.418114006519     0.000000102386     
7.960000038147     0.423415005207     0.000000104823     
8.064999580383     0.428716003895     0.000000107301     
8.170000076294     0.433851003647     0.000000110620     
8.274999618530     0.439152002335     0.000000113141     
8.380000114441     0.444453001022     0.000000115452     
8.484999656677     0.449589014053     0.000000118855     
8.590000152588     0.454890012741     0.000000122426     
8.694999694824     0.460191011429     0.000000124989     
8.800000190735     0.465492010117     0.000000127636     
8.904999732971     0.470627009869     0.000000131333     
9.010000228882     0.475928008556     0.000000134274     
9.114999771118     0.481229007244     0.000000137341     
9.220000267029     0.486530005932     0.000000141458     
9.324999809265     0.491665005684     0.000000145155     
9.430000305176     0.497132003307     0.000000147718     
9.534999847412     0.502267003059     0.000000151247     
9.640000343323     0.507568001747     0.000000155322     
9.744999885559     0.512869000435     0.000000158810     
9.850000381470     0.518169999123     0.000000162633     
9.954999923706     0.523304998875     0.000000167128     
10.060000419617     0.528605997562     0.000000171077     
10.164999961853     0.533906996250     0.000000174186     
10.270000457764     0.539207994938     0.000000178598     
10.375000000000     0.544344007969     0.000000183387     
10.479999542236     0.549645006657     0.000000187673     
10.585000038147     0.554946005344     0.000000191790     
10.689999580383     0.560247004032     0.000000196789     
10.795000076294     0.565548002720     0.000000201159     
10.899999618530     0.570683002472     0.000000205318     
11.005000114441     0.575984001160     0.000000210486     
11.109999656677     0.581119000912     0.000000216115     
11.215000152588     0.586585998535     0.000000220611     
11.319999694824     0.591886997223     0.000000225190     
11.425000190735     0.597021996975     0.000000230778     
11.529999732971     0.602322995663     0.000000235525     
11.635000228882     0.607623994350     0.000000240609     
11.739999771118     0.612758994102     0.000000246533     
11.845000267029     0.618059992790     0.000000252163     
11.949999809265     0.623360991478     0.000000256406     
12.055000305176     0.628497004509     0.000000261616     
12.159999847412     0.633962988853     0.000000267287     
12.265000343323     0.639099001884     0.000000272329     
12.369999885559     0.644400000572     0.000000277497     
12.475000381470     0.649535000324     0.000000283210     
12.579999923706     0.655000984669     0.000000288378     
12.685000419617     0.660136997700     0.000000292453     
12.789999961853     0.665437996387     0.000000297621     
12.895000457764     0.670738995075     0.000000303083     
13.000000000000     0.676039993763     0.000000307872     
13.104999542236     0.681174993515     0.000000312325     
13.210000038147     0.686475992203     0.000000317661     
13.314999580383     0.691776990891     0.000000322030     
13.420000076294     0.697077989578     0.000000326148     
13.524999618530     0.702378988266     0.000000331105     
13.630000114441     0.707513988018     0.000000336357     
13.734999656677     0.712814986706     0.000000340474     
13.840000152588     0.718115985394     0.000000344465     
13.944999694824     0.723416984081     0.000000349381     
14.050000190735     0.728717982769     0.000000353414     
14.154999732971     0.733852982521     0.000000357616     
14.260000228882     0.739153981209     0.000000362615     
14.364999771118     0.744454979897     0.000000367363     
14.470000267029     0.749590992928     0.000000370766     
14.574999809265     0.755056977272     0.000000374883     
14.680000305176     0.760192990303     0.000000379672     
14.784999847412     0.765493988991     0.000000383664     
14.890000343323     0.770628988743     0.000000387907     
14.994999885559     0.776095986366     0.000000392907     
15.100000381470     0.781230986118     0.000000397150     
15.204999923706     0.786531984806     0.000000400553     
15.310000419617     0.791832983494     0.000000405006     
15.414999961853     0.796967983246     0.000000409838     
15.520000457764     0.802268981934     0.000000413955     
15.625000000000     0.807569980621     0.000000418030     
15.729999542236     0.812870979309     0.000000422904     
15.835000038147     0.818171977997     0.000000426853     
15.939999580383     0.823472976685     0.000000430676     
16.045000076294     0.828607976437     0.000000435466     
16.149999618530     0.833908975124     0.000000440507     
16.254999160767     0.839044988155     0.000000444331     
16.360000610352     0.844510972500     0.000000448364     
16.465000152588     0.849646985531     0.000000453153     
16.569999694824     0.854947984219     0.000000457229     
16.674999237061     0.860248029232     0.000000461430     
16.780000686646     0.865549027920     0.000000466597     
16.885000228882     0.870684981346     0.000000471345     
16.989999771118     0.875819981098     0.000000474916     
17.094999313354     0.881286978722     0.000000479327     
17.200000762939     0.886587977409     0.000000484243     
17.305000305176     0.891722977161     0.000000488570     
17.409999847412     0.897023975849     0.000000493024     
17.514999389648     0.902324974537     0.000000498149     
17.620000839233     0.907625973225     0.000000502645     
17.725000381470     0.912926971912     0.000000506342     
17.829999923706     0.918061971664     0.000000511089     
17.934999465942     0.923362970352     0.000000516383     
18.040000915527     0.928664028645     0.000000520836     
18.145000457764     0.933799028397     0.000000525248     
18.250000000000     0.939100027084     0.000000530625     
18.354999542236     0.944401025772     0.000000535205     
18.459999084473     0.949702024460     0.000000539574     
18.565000534058     0.954837977886     0.000000544700     
18.670000076294     0.960138976574     0.000000550498     
18.774999618530     0.965439975262     0.000000555161     
18.879999160767     0.970740973949     0.000000559825     
18.985000610352     0.976041972637     0.000000565622     
19.090000152588     0.981176972389     0.000000570622     
19.194999694824     0.986477971077     0.000000575663     
19.299999237061     0.991779029369     0.000000582007     
19.405000686646     0.997080028057     0.000000588015     
19.510000228882     1.002380967140     0.000000593183     
19.614999771118     1.007516026497     0.000000598813     
19.719999313354     1.012817025185     0.000000605283     
19.825000762939     1.018118023872     0.000000611207     
19.930000305176     1.023252964020     0.000000617383     
20.034999847412     1.028553962708     0.000000624525     
20.139999389648     1.033854961395     0.000000631457     
20.245000839233     1.039155960083     0.000000637423     
20.350000381470     1.044456958771     0.000000644565     
20.454999923706     1.049757957458     0.000000652295     
20.559999465942     1.054893970490     0.000000659564     
20.665000915527     1.060359954834     0.000000667168     
20.770000457764     1.065495967865     0.000000675613     
20.875000000000     1.070631027222     0.000000683763     
20.979999542236     1.075932025909     0.000000691452     
21.084999084473     1.081233024597     0.000000700400     
21.190000534058     1.086534023285     0.000000710105     
21.295000076294     1.091668963432     0.000000719222     
21.399999618530     1.097136020660     0.000000728717     
21.504999160767     1.102270960808     0.000000739389     
21.610000610352     1.107571959496     0.000000749388     
21.715000152588     1.112872958183     0.000000759681     
21.819999694824     1.118173956871     0.000000771403     
21.924999237061     1.123309016228     0.000000783712     
22.030000686646     1.128610014915     0.000000795350     
22.135000228882     1.133911013603     0.000000807702     
22.239999771118     1.139047026634     0.000000821314     
22.344999313354     1.144348025322     0.000000834716     
22.450000762939     1.149647951126     0.000000848581     
22.555000305176     1.154783964157     0.000000864125     
22.659999847412     1.160084962845     0.000000880090     
22.764999389648     1.165385961533     0.000000895803     
22.870000839233     1.170686960220     0.000000912609     
22.975000381470     1.175987958908     0.000000930800     
23.079999923706     1.181288957596     0.000000949160     
23.184999465942     1.186424016953     0.000000968528     
23.290000915527     1.191558957100     0.000000989745     
23.395000457764     1.197026014328     0.000001011465     
23.500000000000     1.196529030800     0.000000977771     
23.604999542236     1.191393971443     0.000000914163     
23.709999084473     1.186092972755     0.000000858538     
23.815000534058     1.180956959724     0.000000807702     
23.920000076294     1.175655961037     0.000000761277     
24.024999618530     1.170521020889     0.000000719726     
24.129999160767     1.165220022202     0.000000680654     
24.235000610352     1.159919023514     0.000000643977     
24.340000152588     1.154618024826     0.000000611879     
24.444999694824     1.149482965469     0.000000581713     
24.549999237061     1.144181966782     0.000000553018     
24.655000686646     1.139047026634     0.000000526298     
24.760000228882     1.133746027946     0.000000502099     
24.864999771118     1.128445029259     0.000000478445     
24.969999313354     1.123144030571     0.000000456178     
25.075000762939     1.118008017540     0.000000436516     
25.180000305176     1.112707018852     0.000000418324     
25.284999847412     1.107406020164     0.000000400091     
25.389999389648     1.102270960808     0.000000383328     
25.495000839233     1.096969962120     0.000000368539     
25.600000381470     1.091668963432     0.000000353498     
25.704999923706     1.086367964745     0.000000339214     
25.809999465942     1.081066966057     0.000000326904     
25.915000915527     1.075932025909     0.000000315098     
26.020000457764     1.070631027222     0.000000302620     
26.125000000000     1.065330028534     0.000000291529     
26.229999542236     1.060029029846     0.000000281740     
26.334999084473     1.054893970490     0.000000271825     
26.440000534058     1.049592971802     0.000000262372     
26.545000076294     1.044291973114     0.000000254473     
26.649999618530     1.039155960083     0.000000246365     
26.754999160767     1.033854961395     0.000000237542     
26.860000610352     1.028553962708     0.000000230148     
26.965000152588     1.023252964020     0.000000223510     
27.069999694824     1.017951965332     0.000000216662     
27.174999237061     1.012817025185     0.000000210108     
27.280000686646     1.007516026497     0.000000204562     
27.385000228882     1.002215027809     0.000000198596     
27.489999771118     0.996914029121     0.000000192126     
27.594999313354     0.991612970829     0.000000187042     
27.700000762939     0.986311972141     0.000000182505     
27.805000305176     0.981176972389     0.000000177463     
27.909999847412     0.975875973701     0.000000172632     
28.014999389648     0.970740973949     0.000000168641     
28.120000839233     0.965439975262     0.000000164103     
28.225000381470     0.960138976574     0.000000159188     
28.329999923706     0.954837977886     0.000000155617     
28.434999465942     0.949702024460     0.000000152466     
28.540000915527     0.944401025772     0.000000148348     
28.645000457764     0.939100027084     0.000000144315     
28.750000000000     0.933799028397     0.000000141500     
28.854999542236     0.928664028645     0.000000137761     
28.959999084473     0.923197984695     0.000000134064     
29.065000534058     0.918061971664     0.000000131627     
29.170000076294     0.912760972977     0.000000129148     
29.274999618530     0.907625973225     0.000000125535     
29.379999160767     0.902324974537     0.000000122384     
29.485000610352     0.897023975849     0.000000119989     
29.590000152588     0.891722977161     0.000000117091     
29.694999694824     0.886421978474     0.000000114108     
29.799999237061     0.881120979786     0.000000112427     
29.905000686646     0.875985980034     0.000000110158     
30.010000228882     0.870684981346     0.000000106755     
30.114999771118     0.865383982658     0.000000104319     
30.219999313354     0.860082983971     0.000000102344     
30.325000762939     0.854781985283     0.000000099949     
30.430000305176     0.849646985531     0.000000097722     
30.534999847412     0.844345986843     0.000000096084     
30.639999389648     0.839044988155     0.000000094025     
30.745000839233     0.833743989468     0.000000090832     
30.850000381470     0.828607976437     0.000000089068     
30.954999923706     0.823306977749     0.000000087513     
31.059999465942     0.818005979061     0.000000085497     
31.165000915527     0.812704980373     0.000000083312     
31.270000457764     0.807403981686     0.000000081926     
31.375000000000     0.802268981934     0.000000079741     
31.479999542236     0.796967983246     0.000000077220     
31.584999084473     0.791666984558     0.000000075834     
31.690000534058     0.786365985870     0.000000074657     
31.795000076294     0.781230986118     0.000000072599     
31.899999618530     0.775929987431     0.000000070540     
32.005001068115     0.770628988743     0.000000069364     
32.110000610352     0.765493988991     0.000000067305     
32.215000152588     0.760192990303     0.000000065204     
32.319999694824     0.754891991615     0.000000064322     
32.424999237061     0.749590992928     0.000000063188     
32.529998779297     0.744289994240     0.000000060919     
32.634998321533     0.738988995552     0.000000059028     
32.740001678467     0.733687996864     0.000000057894     
32.845001220703     0.728551983833     0.000000056045     
32.950000762939     0.723250985146     0.000000054365     
33.055000305176     0.717950999737     0.000000053525     
33.159999847412     0.712650001049     0.000000052264     
33.264999389648     0.707513988018     0.000000049828     
33.369998931885     0.702212989330     0.000000048357     
33.474998474121     0.696911990643     0.000000047307     
33.580001831055     0.691610991955     0.000000045584     
33.685001373291     0.686309993267     0.000000044072     
33.790000915527     0.681008994579     0.000000043316     
33.895000457764     0.675873994827     0.000000041971     
34.000000000000     0.670572996140     0.000000039492     
34.104999542236     0.665271997452     0.000000038358     
34.209999084473     0.659970998764     0.000000037476     
34.314998626709     0.654835999012     0.000000035963     
34.419998168945     0.649535000324     0.000000034451     
34.525001525879     0.644234001637     0.000000033610     
34.630001068115     0.638933002949     0.000000032140     
34.735000610352     0.633632004261     0.000000030165     
34.840000152588     0.628497004509     0.000000029199     
34.860000610352     0.617729008198     0.000000026526     
34.965000152588     0.612594008446     0.000000025369     
35.069999694824     0.607293009758     0.000000024747     
35.174999237061     0.601992011070     0.000000023367     
