
Cycle 1
Physical Cycle 1
Step 1

Time (s),          Potential (V),         Current (A)
0.104999996722     0.002805999946     -0.000000420272     
0.209999993443     0.008086999878     -0.000000385886     
0.314999997616     0.013203999959     -0.000000359141     
0.419999986887     0.018485000357     -0.000000336217     
0.449999988079     0.028552999720     -0.000000282741     
0.555000007153     0.033833999187     -0.000000263891     
0.660000026226     0.039115998894     -0.000000246965     
0.764999985695     0.044397000223     -0.000000231963     
0.795000016689     0.054464999586     -0.000000200720     
0.899999976158     0.059746000916     -0.000000185995     
1.004999995232     0.065027996898     -0.000000171985     
1.110000014305     0.070308998227     -0.000000158901     
1.215000033379     0.075590997934     -0.000000144471     
1.320000052452     0.080706998706     -0.000000130672     
1.424999952316     0.085988000035     -0.000000118135     
1.529999971390     0.091269999743     -0.000000104167     
1.634999990463     0.096551001072     -0.000000089737     
1.740000009537     0.101833000779     -0.000000077158     
1.845000028610     0.107114002109     -0.000000063064     
1.950000047684     0.112396001816     -0.000000048550     
2.055000066757     0.117512002587     -0.000000035045     
2.160000085831     0.122792996466     -0.000000020951     
2.265000104904     0.128075003624     -0.000000005806     
2.369999885559     0.133356004953     0.000000008667     
2.474999904633     0.138638004661     0.000000023307     
2.559999942780     0.145569995046     0.000000043328     
2.664999961853     0.150850996375     0.000000058755     
2.769999980927     0.155801996589     0.000000073577     
2.815000057220     0.165704995394     0.000000105850     
2.920000076294     0.170820996165     0.000000121038     
3.025000095367     0.176102995872     0.000000137235     
3.130000114441     0.181383997202     0.000000155073     
3.234999895096     0.186665996909     0.000000171985     
3.339999914169     0.191946998239     0.000000188940     
3.444999933243     0.197228997946     0.000000207535     
3.549999952316     0.202344998717     0.000000225668     
3.654999971390     0.207626000047     0.000000243422     
3.759999990463     0.212907999754     0.000000262648     
3.865000009537     0.218189001083     0.000000281748     
3.970000028610     0.223471000791     0.000000300175     
4.074999809265     0.228752002120     0.000000319570     
4.179999828339     0.234034001827     0.000000339764     
4.284999847412     0.239315003157     0.000000358359     
4.389999866486     0.244431003928     0.000000378343     
4.494999885559     0.249713003635     0.000000398410     
4.599999904633     0.254994004965     0.000000417469     
4.704999923706     0.260111004114     0.000000436905     
4.809999942780     0.265392005444     0.000000457520     
4.914999961853     0.270673990250     0.000000476620     
5.019999980927     0.275954991579     0.000000496309     
5.125000000000     0.281237006187     0.000000516040     
5.230000019073     0.286518007517     0.000000536361     
5.335000038147     0.291799008846     0.000000556218     
5.440000057220     0.296916007996     0.000000576959     
5.545000076294     0.302197009325     0.000000597279     
5.650000095367     0.307478994131     0.000000617431     
5.755000114441     0.312759995461     0.000000638551     
5.860000133514     0.318042010069     0.000000660049     
5.965000152588     0.323323011398     0.000000680663     
6.070000171661     0.328604012728     0.000000702835     
6.175000190735     0.333721011877     0.000000725259     
6.280000209808     0.339002013206     0.000000746673     
6.385000228882     0.344283998013     0.000000769811     
6.489999771118     0.349400013685     0.000000794002     
6.594999790192     0.354680985212     0.000000817183     
6.699999809265     0.359962999821     0.000000841332     
6.804999828339     0.365244001150     0.000000866869     
6.909999847412     0.370525985956     0.000000891775     
7.014999866486     0.375806987286     0.000000917270     
7.119999885559     0.380923986435     0.000000944111     
7.224999904633     0.386204987764     0.000000970910     
7.329999923706     0.391487002373     0.000000997877     
7.434999942780     0.396768003702     0.000001026570     
7.525000095367     0.404359996319     0.000001070183     
7.630000114441     0.409476011992     0.000001097880     
7.735000133514     0.414923012257     0.000001127115     
7.840000152588     0.420038998127     0.000001157505     
7.945000171661     0.425321012735     0.000001187126     
8.050000190735     0.430602014065     0.000001216746     
8.154999732971     0.435883998871     0.000001248290     
8.260000228882     0.441165000200     0.000001279449     
8.364999771118     0.446446001530     0.000001310223     
8.470000267029     0.451727986336     0.000001342921     
8.574999809265     0.457008987665     0.000001374850     
8.680000305176     0.462125986814     0.000001405624     
8.784999847412     0.467406988144     0.000001437938     
8.890000343323     0.472689002752     0.000001469866     
8.994999885559     0.477970004082     0.000001501410     
9.100000381470     0.483251005411     0.000001534493     
9.204999923706     0.488532990217     0.000001567190     
9.310000419617     0.493813991547     0.000001597580     
9.414999961853     0.499096006155     0.000001630278     
9.520000457764     0.504377007484     0.000001663361     
9.625000000000     0.509658992290     0.000001694135     
9.729999542236     0.514774978161     0.000001725679     
9.835000038147     0.520056009293     0.000001758762     
9.939999580383     0.525337994099     0.000001789921     
10.045000076294     0.530619025230     0.000001821849     
10.149999618530     0.535901010036     0.000001853778     
10.255000114441     0.541181981564     0.000001885706     
10.359999656677     0.546464025974     0.000001916865     
10.465000152588     0.551744997501     0.000001948794     
10.569999694824     0.556860983372     0.000001980338     
10.675000190735     0.562143027782     0.000002011112     
10.779999732971     0.567423999310     0.000002043810     
10.885000228882     0.572871029377     0.000002075354     
10.989999771118     0.577987015247     0.000002105744     
11.095000267029     0.583269000053     0.000002137672     
11.199999809265     0.588549971581     0.000002169216     
11.305000305176     0.593832015991     0.000002198837     
11.409999847412     0.598948001862     0.000002229996     
11.515000343323     0.604394018650     0.000002260770     
11.619999885559     0.609511017799     0.000002290391     
11.725000381470     0.614956974983     0.000002320011     
11.829999923706     0.620073974133     0.000002350016     
11.935000419617     0.625355005264     0.000002378483     
12.039999961853     0.630636990070     0.000002405795     
12.145000457764     0.635918021202     0.000002434261     
12.250000000000     0.641198992729     0.000002461189     
12.354999542236     0.646480977535     0.000002488117     
12.460000038147     0.651597023010     0.000002515044     
12.564999580383     0.656879007816     0.000002540433     
12.670000076294     0.662159979343     0.000002564668     
12.774999618530     0.667442023754     0.000002590057     
12.880000114441     0.672722995281     0.000002613907     
12.984999656677     0.678004026413     0.000002636604     
13.090000152588     0.683286011219     0.000002659684     
13.194999694824     0.688566982746     0.000002681996     
13.300000190735     0.693849027157     0.000002702384     
13.404999732971     0.699129998684     0.000002723541     
13.510000228882     0.704411983490     0.000002743930     
13.614999771118     0.709693014622     0.000002762394     
13.720000267029     0.714809000492     0.000002780859     
13.824999809265     0.720090985298     0.000002799324     
13.930000305176     0.725372016430     0.000002816250     
14.034999847412     0.730654001236     0.000002833176     
14.140000343323     0.735934972763     0.000002850871     
14.244999885559     0.741217017174     0.000002866258     
14.350000381470     0.746497988701     0.000002881261     
14.454999923706     0.751779973507     0.000002897417     
14.560000419617     0.757061004639     0.000002912035     
14.664999961853     0.762176990509     0.000002925884     
14.770000457764     0.767458975315     0.000002940502     
14.875000000000     0.772904992104     0.000002954735     
14.979999542236     0.778021991253     0.000002967429     
15.085000038147     0.783303022385     0.000002982047     
15.189999580383     0.788585007191     0.000002996280     
15.295000076294     0.793865978718     0.000003008590     
15.399999618530     0.799147009850     0.000003022439     
15.505000114441     0.804428994656     0.000003035902     
15.609999656677     0.809710025787     0.000003048212     
15.715000152588     0.814827024937     0.000003061676     
15.819999694824     0.820107996464     0.000003075909     
15.925000190735     0.825555026531     0.000003089373     
16.030000686646     0.830671012402     0.000003102837     
16.135000228882     0.835951983929     0.000003117455     
16.239999771118     0.841234028339     0.000003131303     
16.344999313354     0.846514999866     0.000003145152     
16.450000762939     0.851796984673     0.000003160539     
16.555000305176     0.857078015804     0.000003175542     
16.659999847412     0.862360000610     0.000003190544     
16.764999389648     0.867640972137     0.000003206701     
16.870000839233     0.872757017612     0.000003222473     
16.975000381470     0.878039002419     0.000003237860     
17.079999923706     0.883319973946     0.000003254786     
17.184999465942     0.888602018356     0.000003270943     
17.290000915527     0.893882989883     0.000003287484     
17.395000457764     0.899164974689     0.000003305949     
17.500000000000     0.904446005821     0.000003324413     
17.604999542236     0.909561991692     0.000003341339     
17.709999084473     0.915009021759     0.000003359804     
17.815000534058     0.920289993286     0.000003379423     
17.920000076294     0.925571978092     0.000003397887     
18.024999618530     0.930688023567     0.000003417121     
18.129999160767     0.935970008373     0.000003437509     
18.235000610352     0.941250979900     0.000003457128     
18.340000152588     0.946533024311     0.000003477901     
18.444999694824     0.951813995838     0.000003499828     
18.549999237061     0.957095026970     0.000003520985     
18.655000686646     0.962377011776     0.000003542143     
18.760000228882     0.967492997646     0.000003565608     
18.864999771118     0.972940027714     0.000003587535     
18.969999313354     0.978056013584     0.000003610231     
19.075000762939     0.983337998390     0.000003634466     
19.180000305176     0.988619029522     0.000003658701     
19.284999847412     0.993900001049     0.000003682167     
19.389999389648     0.999181985855     0.000003708710     
19.495000839233     1.004297971725     0.000003734483     
19.600000381470     1.009745001793     0.000003759487     
19.704999923706     1.014860987663     0.000003786415     
19.809999465942     1.020143032074     0.000003814112     
19.915000915527     1.025424003601     0.000003840655     
20.020000457764     1.030704975128     0.000003869891     
20.125000000000     1.035987019539     0.000003899896     
20.229999542236     1.041267991066     0.000003929132     
20.334999084473     1.046550035477     0.000003959522     
20.440000534058     1.051831007004     0.000003991450     
20.545000076294     1.057113051414     0.000004022994     
20.649999618530     1.062394022942     0.000004055307     
20.754999160767     1.067510008812     0.000004090313     
20.860000610352     1.072792053223     0.000004123780     
20.965000152588     1.078073024750     0.000004158786     
21.069999694824     1.083354949951     0.000004195716     
21.174999237061     1.088636040688     0.000004232645     
21.280000686646     1.093752980232     0.000004269574     
21.385000228882     1.099033951759     0.000004309197     
21.489999771118     1.104315042496     0.000004348819     
21.594999313354     1.109596967697     0.000004388441     
21.700000762939     1.114878058434     0.000004431140     
21.805000305176     1.120159983635     0.000004474225     
21.909999847412     1.125440955162     0.000004517694     
22.014999389648     1.130722999573     0.000004563086     
22.120000839233     1.136003971100     0.000004610402     
22.225000381470     1.141284942627     0.000004656564     
22.329999923706     1.146566987038     0.000004705418     
22.434999465942     1.151847958565     0.000004756196     
22.540000915527     1.156965017319     0.000004806204     
22.645000457764     1.162245988846     0.000004858521     
22.750000000000     1.167528033257     0.000004912761     
22.854999542236     1.172809004784     0.000004966616     
22.959999084473     1.177924990654     0.000005022395     
23.065000534058     1.183207035065     0.000005079713     
23.170000076294     1.188652992249     0.000005137799     
23.274999618530     1.193770051003     0.000005197040     
23.379999160767     1.198390960693     0.000005231277     
23.485000610352     1.195255041122     0.000005019702     
23.590000152588     1.189973950386     0.000004778123     
23.694999694824     1.184692025185     0.000004557700     
23.799999237061     1.179576039314     0.000004353050     
23.905000686646     1.174293994904     0.000004162248     
24.010000228882     1.169013023376     0.000003984910     
24.114999771118     1.163732051849     0.000003819113     
24.219999313354     1.158450007439     0.000003662932     
24.325000762939     1.153334021568     0.000003517138     
24.430000305176     1.148051977158     0.000003380577     
24.534999847412     1.142771005630     0.000003251324     
24.639999389648     1.137488961220     0.000003130149     
24.745000839233     1.132207989693     0.000003016668     
24.850000381470     1.127092003822     0.000002908573     
24.954999923706     1.121809959412     0.000002806248     
25.059999465942     1.116528987885     0.000002710462     
25.165000915527     1.111246943474     0.000002619293     
25.270000457764     1.105965971947     0.000002533509     
25.375000000000     1.100684046745     0.000002452341     
25.479999542236     1.095402956009     0.000002375020     
25.584999084473     1.090286970139     0.000002301162     
25.690000534058     1.085005044937     0.000002232304     
25.795000076294     1.079723954201     0.000002165754     
25.899999618530     1.074442028999     0.000002102282     
26.004999160767     1.069161057472     0.000002043425     
26.110000610352     1.063879013062     0.000001986108     
26.215000152588     1.058598041534     0.000001931483     
26.319999694824     1.053316950798     0.000001880321     
26.424999237061     1.048035025597     0.000001831082     
26.530000686646     1.042754054070     0.000001783381     
26.635000228882     1.037472009659     0.000001738373     
26.739999771118     1.032356023788     0.000001696059     
26.844999313354     1.027073979378     0.000001653744     
26.950000762939     1.021793007851     0.000001614121     
27.055000305176     1.016512036324     0.000001577192     
27.159999847412     1.011229991913     0.000001540647     
27.264999389648     1.006114006042     0.000001504872     
27.370000839233     1.000831961632     0.000001471790     
27.475000381470     0.995550990105     0.000001439092     
27.579999923706     0.990269005299     0.000001407548     
27.684999465942     0.984987974167     0.000001377927     
27.790000915527     0.979707002640     0.000001348692     
27.895000457764     0.974425017834     0.000001320225     
28.000000000000     0.969143986702     0.000001293682     
28.104999542236     0.963862001896     0.000001267139     
28.209999084473     0.958580970764     0.000001240981     
28.315000534058     0.953463971615     0.000001216746     
28.420000076294     0.948183000088     0.000001192896     
28.524999618530     0.942902028561     0.000001168276     
28.629999160767     0.937619984150     0.000001146349     
28.735000610352     0.932339012623     0.000001124423     
28.840000152588     0.927057027817     0.000001102496     
28.944999694824     0.921775996685     0.000001081723     
29.049999237061     0.916494011879     0.000001062104     
29.155000686646     0.911212980747     0.000001040947     
29.260000228882     0.906096994877     0.000001021328     
29.364999771118     0.900815010071     0.000001002863     
29.469999313354     0.895533978939     0.000000983629     
29.575000762939     0.890251994133     0.000000965165     
29.680000305176     0.884971022606     0.000000947854     
29.784999847412     0.879688978195     0.000000929774     
29.889999389648     0.874408006668     0.000000912079     
29.995000839233     0.869126021862     0.000000895922     
30.100000381470     0.864009976387     0.000000878996     
30.204999923706     0.858729004860     0.000000861685     
30.309999465942     0.853447020054     0.000000846683     
30.415000915527     0.848165988922     0.000000830526     
30.520000457764     0.842884004116     0.000000813985     
30.625000000000     0.837602972984     0.000000799367     
30.729999542236     0.832320988178     0.000000784365     
30.834999084473     0.827040016651     0.000000768208     
30.940000534058     0.821758985519     0.000000753975     
31.045000076294     0.816641986370     0.000000739742     
31.149999618530     0.811361014843     0.000000724354     
31.254999160767     0.805913984776     0.000000710506     
31.360000610352     0.800797998905     0.000000697042     
31.465000152588     0.795516014099     0.000000682039     
31.569999694824     0.790234982967     0.000000668191     
31.674999237061     0.784954011440     0.000000655112     
31.780000686646     0.779672026634     0.000000641263     
31.885000228882     0.774390995502     0.000000627030     
31.989999771118     0.769109010696     0.000000614720     
32.095001220703     0.763827979565     0.000000600872     
32.200000762939     0.758545994759     0.000000587408     
32.305000305176     0.753430008888     0.000000575098     
32.409999847412     0.747982978821     0.000000561634     
32.514999389648     0.742866992950     0.000000548170     
32.619998931885     0.737586021423     0.000000536245     
32.724998474121     0.732303977013     0.000000523551     
32.830001831055     0.727023005486     0.000000510087     
32.935001373291     0.721741020679     0.000000498162     
33.040000915527     0.716459989548     0.000000486237     
33.145000457764     0.711178004742     0.000000472773     
33.250000000000     0.705896973610     0.000000460848     
33.354999542236     0.700616002083     0.000000448538     
33.459999084473     0.695334017277     0.000000435844     
33.564998626709     0.690217971802     0.000000423534     
33.669998168945     0.684935986996     0.000000411993     
33.775001525879     0.679655015469     0.000000399299     
33.880001068115     0.674372971058     0.000000386989     
33.985000610352     0.669091999531     0.000000375449     
34.090000152588     0.663811028004     0.000000363139     
34.194999694824     0.658528983593     0.000000350829     
34.299999237061     0.653248012066     0.000000339289     
34.325000762939     0.642849981785     0.000000315825     
34.430000305176     0.637403011322     0.000000304466     
34.534999847412     0.632287025452     0.000000293654     
34.639999389648     0.627005994320     0.000000281874     
34.744998931885     0.621888995171     0.000000269548     
34.849998474121     0.616442978382     0.000000258525     
34.955001831055     0.611160993576     0.000000246451     
35.060001373291     0.606045007706     0.000000234292     
35.165000915527     0.600763022900     0.000000223186     
