
Cycle 1
Physical Cycle 1
Step 1

Time (s),          Potential (V),         Current (A)
0.104999996722     0.002644000109     -0.000001174110     
0.209999993443     0.007931999862     -0.000001101208     
0.314999997616     0.013220000081     -0.000001039816     
0.419999986887     0.018508000299     -0.000000974588     
0.449999988079     0.028589000925     -0.000000798969     
0.555000007153     0.033711001277     -0.000000748455     
0.660000026226     0.038998998702     -0.000000701026     
0.764999985695     0.044286999851     -0.000000655525     
0.870000004768     0.049575001001     -0.000000611952     
0.975000023842     0.054864000529     -0.000000571078     
1.080000042915     0.060152001679     -0.000000534446     
1.184999942780     0.065439999104     -0.000000497042     
1.289999961853     0.070561997592     -0.000000461181     
1.394999980927     0.075850002468     -0.000000428405     
1.500000000000     0.081138998270     -0.000000398328     
1.605000019073     0.086427003145     -0.000000369022     
1.710000038147     0.091549001634     -0.000000341259     
1.815000057220     0.097002997994     -0.000000314652     
1.919999957085     0.102291002870     -0.000000288431     
1.945000052452     0.112535998225     -0.000000233504     
2.049999952316     0.117824003100     -0.000000213117     
2.154999971390     0.123112000525     -0.000000193152     
2.259999990463     0.128399997950     -0.000000173186     
2.365000009537     0.133689001203     -0.000000154825     
2.470000028610     0.138811007142     -0.000000137477     
2.575000047684     0.144098997116     -0.000000119876     
2.680000066757     0.149387001991     -0.000000103203     
2.785000085831     0.154510006309     -0.000000088472     
2.890000104904     0.159797996283     -0.000000073656     
2.994999885559     0.165086001158     -0.000000058840     
3.099999904633     0.170374006033     -0.000000045460     
3.204999923706     0.175661996007     -0.000000032713     
3.309999942780     0.180950999260     -0.000000019585     
3.414999961853     0.186239004135     -0.000000007724     
3.519999980927     0.191360995173     0.000000003377     
3.625000000000     0.196649000049     0.000000015069     
3.734999895096     0.202433004975     0.000000026729     
3.839999914169     0.207555994391     0.000000037253     
3.944999933243     0.212843999267     0.000000046629     
4.050000190735     0.217967003584     0.000000057053     
4.155000209808     0.223254993558     0.000000066894     
4.260000228882     0.228377997875     0.000000075386     
4.364999771118     0.233666002750     0.000000084320     
4.434999942780     0.242258995771     0.000000101641     
4.539999961853     0.247547000647     0.000000109196     
4.644999980927     0.252835005522     0.000000116794     
4.750000000000     0.257957994938     0.000000125236     
4.855000019073     0.263245999813     0.000000134480     
4.960000038147     0.268534004688     0.000000142669     
5.065000057220     0.273822009563     0.000000151026     
5.170000076294     0.279110014439     0.000000160017     
5.275000095367     0.284233003855     0.000000168797     
5.380000114441     0.289521008730     0.000000177323     
5.485000133514     0.294809013605     0.000000187073     
5.590000152588     0.299932003021     0.000000196148     
5.695000171661     0.305220007896     0.000000205013     
5.800000190735     0.310672998428     0.000000215058     
5.905000209808     0.315795987844     0.000000225695     
6.010000228882     0.321083992720     0.000000235403     
6.114999771118     0.326371997595     0.000000245745     
6.219999790192     0.331660002470     0.000000256888     
6.324999809265     0.336948007345     0.000000268116     
6.429999828339     0.342070996761     0.000000279639     
6.534999847412     0.347359001637     0.000000293104     
6.639999866486     0.352647006512     0.000000306653     
6.744999885559     0.357935011387     0.000000319443     
6.849999904633     0.363222986460     0.000000333035     
6.954999923706     0.368510991335     0.000000346626     
7.059999942780     0.373634010553     0.000000358993     
7.164999961853     0.378921985626     0.000000372627     
7.269999980927     0.384209990501     0.000000386599     
7.375000000000     0.389333009720     0.000000399937     
7.480000019073     0.394621014595     0.000000412853     
7.585000038147     0.399908989668     0.000000427247     
7.690000057220     0.405196994543     0.000000441091     
7.795000076294     0.410320013762     0.000000455358     
7.900000095367     0.415607988834     0.000000470132     
8.005000114441     0.420895993710     0.000000484821     
8.109999656677     0.426183998585     0.000000498412     
8.215000152588     0.431472003460     0.000000513523     
8.319999694824     0.436760008335     0.000000528845     
8.425000190735     0.442048013210     0.000000543619     
8.529999732971     0.447171002626     0.000000558392     
8.635000228882     0.452623993158     0.000000574432     
8.739999771118     0.457747012377     0.000000589754     
8.845000267029     0.463034987450     0.000000605456     
8.949999809265     0.468158006668     0.000000621664     
9.055000305176     0.473446011543     0.000000637578     
9.159999847412     0.478733986616     0.000000653111     
9.265000343323     0.484021991491     0.000000669868     
9.369999885559     0.489309996367     0.000000686583     
9.475000381470     0.494432985783     0.000000702116     
9.579999923706     0.499720990658     0.000000718282     
9.685000419617     0.504844009876     0.000000735799     
9.789999961853     0.510297000408     0.000000752472     
9.895000457764     0.515585005283     0.000000769187     
10.000000000000     0.520708024502     0.000000786662     
10.104999542236     0.525996029377     0.000000803884     
10.210000038147     0.531283974648     0.000000821105     
10.314999580383     0.536571979523     0.000000839467     
10.420000076294     0.541694998741     0.000000857237     
10.524999618530     0.546983003616     0.000000874543     
10.630000114441     0.552271008492     0.000000892862     
10.734999656677     0.557559013367     0.000000911898     
10.840000152588     0.562681972980     0.000000930091     
10.944999694824     0.568135023117     0.000000948199     
11.050000190735     0.573257982731     0.000000967784     
11.154999732971     0.578545987606     0.000000986905     
11.260000228882     0.583833992481     0.000001006068     
11.364999771118     0.589121997356     0.000001026076     
11.399999618530     0.599367976189     0.000001058866     
11.505000114441     0.604655981064     0.000001078532     
11.609999656677     0.609943985939     0.000001098197     
11.715000152588     0.615231990814     0.000001118249     
11.819999694824     0.620355010033     0.000001139457     
11.925000190735     0.625643014908     0.000001159894     
12.029999732971     0.631096005440     0.000001179945     
12.135000228882     0.636219024658     0.000001201539     
12.239999771118     0.641507029533     0.000001223133     
12.345000267029     0.646794974804     0.000001243955     
12.449999809265     0.651917994022     0.000001265935     
12.555000305176     0.657370984554     0.000001288300     
12.659999847412     0.662494003773     0.000001309122     
12.765000343323     0.667782008648     0.000001330716     
12.869999885559     0.673070013523     0.000001353081     
12.975000381470     0.678358018398     0.000001375446     
13.079999923706     0.683646023273     0.000001397040     
13.185000419617     0.688768982887     0.000001419790     
13.289999961853     0.694056987762     0.000001441770     
13.395000457764     0.699344992638     0.000001463749     
13.500000000000     0.704632997513     0.000001486500     
13.604999542236     0.709921002388     0.000001509250     
13.710000038147     0.715209007263     0.000001530844     
13.814999580383     0.720497012138     0.000001553594     
13.920000076294     0.725785017014     0.000001576731     
14.024999618530     0.730907976627     0.000001599481     
14.130000114441     0.736195981503     0.000001621075     
14.234999656677     0.741483986378     0.000001644597     
14.340000152588     0.746771991253     0.000001666962     
14.444999694824     0.752059996128     0.000001689327     
14.550000190735     0.757348001003     0.000001711692     
14.654999732971     0.762636005878     0.000001733671     
14.760000228882     0.767759025097     0.000001754879     
14.864999771118     0.773212015629     0.000001778015     
14.970000267029     0.778334975243     0.000001802694     
15.074999809265     0.783622980118     0.000001821974     
15.180000305176     0.788745999336     0.000001844339     
15.284999847412     0.794198989868     0.000001864005     
15.390000343323     0.799486994743     0.000001885213     
15.494999885559     0.804610013962     0.000001906807     
15.600000381470     0.809898018837     0.000001926858     
15.704999923706     0.815186023712     0.000001954622     
15.810000419617     0.820474028587     0.000001972359     
15.914999961853     0.825596988201     0.000001997424     
16.020000457764     0.831049978733     0.000002020945     
16.125000000000     0.836337983608     0.000002039069     
16.229999542236     0.841461002827     0.000002060277     
16.334999084473     0.846749007702     0.000002081485     
16.440000534058     0.852037012577     0.000002104236     
16.545000076294     0.857325017452     0.000002123516     
16.649999618530     0.862613022327     0.000002145495     
16.754999160767     0.867735981941     0.000002166318     
16.860000610352     0.873188972473     0.000002186755     
16.965000152588     0.878477990627     0.000002200251     
17.069999694824     0.883599996567     0.000002234184     
17.174999237061     0.888888001442     0.000002250765     
17.280000686646     0.894176006317     0.000002271587     
17.385000228882     0.899464011192     0.000002291639     
17.489999771118     0.904586970806     0.000002312076     
17.594999313354     0.910040974617     0.000002331741     
17.700000762939     0.915162980556     0.000002347937     
17.805000305176     0.920450985432     0.000002364132     
17.909999847412     0.925738990307     0.000002382255     
18.014999389648     0.931028008461     0.000002401150     
18.120000839233     0.936316013336     0.000002420044     
18.225000381470     0.941438019276     0.000002444337     
18.329999923706     0.946726024151     0.000002473258     
18.434999465942     0.952014029026     0.000002494466     
18.540000915527     0.957302987576     0.000002514132     
18.645000457764     0.962590992451     0.000002535340     
18.750000000000     0.967878997326     0.000002556548     
18.854999542236     0.973167002201     0.000002576214     
18.959999084473     0.978289008141     0.000002595108     
19.065000534058     0.983743011951     0.000002613232     
19.170000076294     0.988865971565     0.000002635211     
19.274999618530     0.994153976440     0.000002645622     
19.379999160767     0.999441981316     0.000002667602     
19.485000610352     1.004729986191     0.000002687653     
19.590000152588     1.010017991066     0.000002705776     
19.694999694824     1.015305995941     0.000002726213     
19.799999237061     1.020429015160     0.000002745493     
19.905000686646     1.025717020035     0.000002766316     
20.010000228882     1.031005024910     0.000002785982     
20.114999771118     1.036293029785     0.000002805262     
20.219999313354     1.041581034660     0.000002823385     
20.325000762939     1.046869039536     0.000002841509     
20.430000305176     1.052157044411     0.000002864645     
20.534999847412     1.057445049286     0.000002883539     
20.639999389648     1.062567949295     0.000002902434     
20.745000839233     1.067855954170     0.000002921714     
20.850000381470     1.072978973389     0.000002946778     
20.954999923706     1.078266978264     0.000002963745     
21.059999465942     1.083719968796     0.000002982639     
21.165000915527     1.089007973671     0.000003001534     
21.270000457764     1.094130992889     0.000003020428     
21.375000000000     1.099418997765     0.000003040480     
21.479999542236     1.104707002640     0.000003057832     
21.584999084473     1.109995007515     0.000003077883     
21.690000534058     1.115118026733     0.000003096392     
21.795000076294     1.120571017265     0.000003116443     
21.899999618530     1.125694036484     0.000003136109     
22.004999160767     1.130982041359     0.000003153461     
22.110000610352     1.136270046234     0.000003173898     
22.215000152588     1.141558051109     0.000003193564     
22.319999694824     1.146846055984     0.000003212073     
22.424999237061     1.151968955994     0.000003230196     
22.530000686646     1.157256960869     0.000003250633     
22.635000228882     1.162544965744     0.000003268757     
22.739999771118     1.167832970619     0.000003288037     
22.844999313354     1.173120975494     0.000003307703     
22.950000762939     1.178408980370     0.000003324669     
23.055000305176     1.183531999588     0.000003344335     
23.159999847412     1.188984990120     0.000003363615     
23.264999389648     1.194108009338     0.000003385980     
23.370000839233     1.198238968849     0.000003387137     
23.475000381470     1.194604039192     0.000003296520     
23.579999923706     1.189316034317     0.000003201276     
23.684999465942     1.184028029442     0.000003109117     
23.790000915527     1.178740024567     0.000003021585     
23.895000457764     1.173617005348     0.000002938680     
24.000000000000     1.168329000473     0.000002858089     
24.104999542236     1.163040995598     0.000002780198     
24.209999084473     1.157752990723     0.000002705391     
24.315000534058     1.152629971504     0.000002632897     
24.420000076294     1.147176980972     0.000002560018     
24.524999618530     1.142053961754     0.000002487525     
24.629999160767     1.136765956879     0.000002426600     
24.735000610352     1.131477952003     0.000002362590     
24.840000152588     1.126189947128     0.000002302050     
24.944999694824     1.120901942253     0.000002244595     
25.049999237061     1.115614056587     0.000002186755     
25.155000686646     1.110326051712     0.000002131228     
25.260000228882     1.105203032494     0.000002078400     
25.364999771118     1.099915027618     0.000002026344     
25.469999313354     1.094627022743     0.000001975059     
25.575000762939     1.089504003525     0.000001928401     
25.680000305176     1.084215998650     0.000001882899     
25.784999847412     1.078927993774     0.000001837398     
25.889999389648     1.073639988899     0.000001793825     
25.995000839233     1.068351984024     0.000001751794     
26.100000381470     1.063063979149     0.000001710921     
26.204999923706     1.057775020599     0.000001669661     
26.309999465942     1.052487015724     0.000001632257     
26.415000915527     1.047199010849     0.000001594854     
26.520000457764     1.042076945305     0.000001558222     
26.625000000000     1.036788940430     0.000001523132     
26.729999542236     1.031499981880     0.000001489584     
26.834999084473     1.026211977005     0.000001456808     
26.940000534058     1.020923972130     0.000001423261     
27.045000076294     1.015635967255     0.000001393569     
27.149999618530     1.010514020920     0.000001363107     
27.254999160767     1.005224943161     0.000001333415     
27.360000610352     0.999936997890     0.000001305652     
27.465000152588     0.994648993015     0.000001277888     
27.569999694824     0.989360988140     0.000001252053     
27.674999237061     0.984072983265     0.000001226603     
27.780000686646     0.978784978390     0.000001201925     
27.885000228882     0.973662018776     0.000001176860     
27.989999771118     0.968374013901     0.000001152182     
28.094999313354     0.963086009026     0.000001130588     
28.200000762939     0.957798004150     0.000001107837     
28.305000305176     0.952674984932     0.000001085858     
28.409999847412     0.947386980057     0.000001065421     
28.514999389648     0.941933989525     0.000001045370     
28.620000839233     0.936810970306     0.000001024933     
28.725000381470     0.931523025036     0.000001005653     
28.829999923706     0.926235020161     0.000000986758     
28.934999465942     0.920947015285     0.000000968249     
29.040000915527     0.915823996067     0.000000949740     
29.145000457764     0.910371005535     0.000000933159     
29.250000000000     0.905247986317     0.000000915422     
29.354999542236     0.899959981441     0.000000901154     
29.459999084473     0.894671976566     0.000000885730     
29.565000534058     0.889383971691     0.000000870306     
29.670000076294     0.884096026421     0.000000855653     
29.774999618530     0.878973007202     0.000000840615     
29.879999160767     0.873685002327     0.000000824034     
29.985000610352     0.868396997452     0.000000812466     
30.090000152588     0.863108992577     0.000000796270     
30.194999694824     0.857820987701     0.000000784702     
30.299999237061     0.852532982826     0.000000773520     
30.405000686646     0.847244977951     0.000000759638     
30.510000228882     0.841956973076     0.000000747684     
30.614999771118     0.836669027805     0.000000735345     
30.719999313354     0.831546008587     0.000000723006     
30.825000762939     0.826258003712     0.000000711823     
30.930000305176     0.820969998837     0.000000699869     
31.034999847412     0.815681993961     0.000000688687     
31.139999389648     0.810393989086     0.000000678276     
31.245000839233     0.805271029472     0.000000667479     
31.350000381470     0.799983024597     0.000000655525     
31.454999923706     0.794695019722     0.000000645114     
31.559999465942     0.789407014847     0.000000634703     
31.665000915527     0.784283995628     0.000000624677     
31.770000457764     0.778831005096     0.000000614266     
31.875000000000     0.773543000221     0.000000605011     
31.979999542236     0.768254995346     0.000000594600     
32.084999084473     0.762966990471     0.000000584189     
32.189998626709     0.757843971252     0.000000574934     
32.294998168945     0.752556025982     0.000000565680     
32.400001525879     0.747268021107     0.000000554497     
32.505001068115     0.741980016232     0.000000546014     
32.610000610352     0.736856997013     0.000000537145     
32.715000152588     0.731568992138     0.000000527505     
32.819999694824     0.726280987263     0.000000517865     
32.924999237061     0.720992982388     0.000000509382     
33.029998779297     0.715704977512     0.000000499741     
33.134998321533     0.710416972637     0.000000490873     
33.240001678467     0.705129027367     0.000000483161     
33.345001220703     0.700006008148     0.000000473906     
33.450000762939     0.694552004337     0.000000463109     
33.555000305176     0.689263999462     0.000000456554     
33.659999847412     0.684141993523     0.000000448842     
33.764999389648     0.678853988647     0.000000439973     
33.869998931885     0.673565983772     0.000000431875     
33.974998474121     0.668277025223     0.000000424549     
34.080001831055     0.662989020348     0.000000416451     
34.185001373291     0.657701015472     0.000000408739     
34.290000915527     0.652413010597     0.000000401798     
34.395000457764     0.647291004658     0.000000394086     
34.500000000000     0.642001986504     0.000000386374     
34.604999542236     0.636713981628     0.000000379819     
34.709999084473     0.631425976753     0.000000374035     
34.814998626709     0.626137971878     0.000000366323     
34.919998168945     0.620850026608     0.000000358611     
35.025001525879     0.615727007389     0.000000351284     
35.130001068115     0.609282970428     0.000000349285     
35.235000610352     0.603995025158     0.000000341434     
