
Cycle 1
Physical Cycle 1
Step 1

Time (s),          Potential (V),         Current (A)
0.104999996722     0.002475999994     -0.000004665014     
0.209999993443     0.007592000067     -0.000002876949     
0.314999997616     0.013039000332     -0.000002513988     
0.419999986887     0.018154999241     -0.000002288569     
0.524999976158     0.023436000571     -0.000002112819     
0.610000014305     0.030863000080     -0.000001899555     
0.714999973774     0.036145001650     -0.000001782996     
0.819999992847     0.041425999254     -0.000001676824     
0.925000011921     0.046707998961     -0.000001581039     
1.029999971390     0.051823999733     -0.000001496024     
1.134999990463     0.057105999440     -0.000001416780     
1.240000009537     0.062551997602     -0.000001340998     
1.345000028610     0.067667998374     -0.000001269063     
1.450000047684     0.072949998081     -0.000001204436     
1.554999947548     0.078230999410     -0.000001143657     
1.659999966621     0.083512999117     -0.000001087878     
1.764999985695     0.088794000447     -0.000001045948     
1.870000004768     0.093910999596     -0.000000996708     
1.975000023842     0.099192000926     -0.000000949393     
2.079999923706     0.104638002813     -0.000000902077     
2.184999942780     0.109755001962     -0.000000857069     
2.289999961853     0.115036003292     -0.000000815908     
2.394999980927     0.120318002999     -0.000000775132     
2.500000000000     0.125598996878     -0.000000734741     
2.605000019073     0.130880996585     -0.000000696657     
2.710000038147     0.136161997914     -0.000000660497     
2.815000057220     0.141277998686     -0.000000624337     
2.920000076294     0.146559998393     -0.000000588947     
3.025000095367     0.151840999722     -0.000000555479     
3.130000114441     0.157122999430     -0.000000522397     
3.234999895096     0.162404000759     -0.000000489699     
3.339999914169     0.167686000466     -0.000000458155     
3.444999933243     0.172967001796     -0.000000426611     
3.549999952316     0.178248003125     -0.000000396221     
3.654999971390     0.183530002832     -0.000000366216     
3.759999990463     0.188646003604     -0.000000335442     
3.865000009537     0.193928003311     -0.000000306206     
3.970000028610     0.199209004641     -0.000000278509     
3.994999885559     0.209607005119     -0.000000218011     
4.099999904633     0.214888006449     -0.000000189866     
4.204999923706     0.220170006156     -0.000000163108     
4.309999942780     0.225286006927     -0.000000134080     
4.414999961853     0.230733007193     -0.000000105556     
4.519999980927     0.235848993063     -0.000000078546     
4.625000000000     0.241130992770     -0.000000050990     
4.730000019073     0.246411994100     -0.000000022129     
4.835000038147     0.251693010330     0.000000006184     
4.940000057220     0.256810009480     0.000000034161     
5.045000076294     0.262091010809     0.000000062770     
5.150000095367     0.267372995615     0.000000091378     
5.255000114441     0.272653996944     0.000000120911     
5.360000133514     0.277936011553     0.000000150024     
5.465000152588     0.283051997423     0.000000179432     
5.570000171661     0.288332998753     0.000000210017     
5.675000190735     0.293615013361     0.000000241360     
5.780000209808     0.298730999231     0.000000272282     
5.885000228882     0.304177999496     0.000000303667     
5.989999771118     0.309293985367     0.000000337450     
6.094999790192     0.314575999975     0.000000371990     
6.199999809265     0.319857001305     0.000000405352     
6.304999828339     0.324972987175     0.000000441112     
6.409999847412     0.330255001783     0.000000478934     
6.514999866486     0.335536003113     0.000000516083     
6.619999885559     0.340817987919     0.000000553820     
6.724999904633     0.345934003592     0.000000594334     
6.829999923706     0.351215988398     0.000000635353     
6.934999942780     0.356496989727     0.000000676919     
7.039999961853     0.361777991056     0.000000719916     
7.144999980927     0.366894990206     0.000000763291     
7.250000000000     0.372175991535     0.000000808727     
7.355000019073     0.377458006144     0.000000854584     
7.460000038147     0.382573992014     0.000000900147     
7.565000057220     0.387856006622     0.000000947308     
7.670000076294     0.393137007952     0.000000996741     
7.719999790192     0.402709990740     0.000001087878     
7.824999809265     0.407990992069     0.000001135963     
7.929999828339     0.413271993399     0.000001185587     
8.034999847412     0.418554008007     0.000001234826     
8.140000343323     0.423835009336     0.000001283680     
8.244999885559     0.429116994143     0.000001333304     
8.350000381470     0.434233009815     0.000001383698     
8.454999923706     0.439514994621     0.000001431783     
8.560000419617     0.444795995951     0.000001479483     
8.664999961853     0.450076997280     0.000001527953     
8.770000457764     0.455359011889     0.000001575269     
8.875000000000     0.460640013218     0.000001619122     
8.979999542236     0.465757012367     0.000001664899     
9.085000038147     0.471202999353     0.000001709907     
9.189999580383     0.476319998503     0.000001752607     
9.295000076294     0.481600999832     0.000001794922     
9.399999618530     0.486882001162     0.000001836082     
9.505000114441     0.492163985968     0.000001876859     
9.609999656677     0.497444987297     0.000001917250     
9.715000152588     0.502726972103     0.000001955718     
9.819999694824     0.507843017578     0.000001993802     
9.925000190735     0.513125002384     0.000002031885     
10.029999732971     0.518405973911     0.000002070353     
10.135000228882     0.523687005043     0.000002106128     
10.239999771118     0.528968989849     0.000002143443     
10.345000267029     0.534250020981     0.000002180757     
10.449999809265     0.539532005787     0.000002217301     
10.555000305176     0.544812977314     0.000002252307     
10.659999847412     0.550095021725     0.000002290006     
10.765000343323     0.555375993252     0.000002326935     
10.869999885559     0.560491979122     0.000002362711     
10.975000381470     0.565774023533     0.000002400025     
11.079999923706     0.571054995060     0.000002438108     
11.185000419617     0.576336979866     0.000002475422     
11.289999961853     0.581618010998     0.000002513121     
11.395000457764     0.586899995804     0.000002552358     
11.500000000000     0.592181026936     0.000002591211     
11.604999542236     0.597463011742     0.000002631218     
11.710000038147     0.602743983269     0.000002671225     
11.814999580383     0.607860028744     0.000002711232     
11.920000076294     0.613142013550     0.000002752008     
12.024999618530     0.618587970734     0.000002793938     
12.130000114441     0.623705029488     0.000002834714     
12.234999656677     0.628986001015     0.000002875490     
12.340000152588     0.634267985821     0.000002917421     
12.444999694824     0.639549016953     0.000002958582     
12.550000190735     0.644665002823     0.000003000512     
12.654999732971     0.650111973286     0.000003044365     
12.760000228882     0.655228018761     0.000003088988     
12.864999771118     0.660510003567     0.000003131688     
12.970000267029     0.665790975094     0.000003176311     
13.074999809265     0.671073019505     0.000003223242     
13.180000305176     0.676353991032     0.000003269788     
13.284999847412     0.681635022163     0.000003316335     
13.390000343323     0.686917006969     0.000003364805     
13.494999885559     0.692197978497     0.000003413659     
13.600000381470     0.697480022907     0.000003464822     
13.704999923706     0.702760994434     0.000003514446     
13.810000419617     0.707877993584     0.000003565224     
13.914999961853     0.713159024715     0.000003617925     
14.020000457764     0.718439996243     0.000003670241     
14.125000000000     0.723721981049     0.000003724097     
14.229999542236     0.729003012180     0.000003777567     
14.335000038147     0.734284996986     0.000003834885     
14.439999580383     0.739566028118     0.000003891048     
14.545000076294     0.744848012924     0.000003948366     
14.649999618530     0.750128984451     0.000004007222     
14.755000114441     0.755411028862     0.000004067617     
14.859999656677     0.760527014732     0.000004126858     
14.965000152588     0.765807986259     0.000004186868     
15.069999694824     0.771089971066     0.000004248417     
15.175000190735     0.776371002197     0.000004310351     
15.279999732971     0.781652987003     0.000004374208     
15.385000228882     0.786934018135     0.000004437680     
15.489999771118     0.792216002941     0.000004499229     
15.595000267029     0.797496974468     0.000004563471     
15.699999809265     0.802613019943     0.000004629636     
15.805000305176     0.807895004749     0.000004693108     
15.909999847412     0.813175976276     0.000004757350     
16.014999389648     0.818458020687     0.000004822746     
16.120000839233     0.823738992214     0.000004887757     
16.225000381470     0.829020977020     0.000004951614     
16.329999923706     0.834302008152     0.000005017010     
16.434999465942     0.839417994022     0.000005083559     
16.540000915527     0.844699978828     0.000005147416     
16.645000457764     0.849981009960     0.000005212812     
16.750000000000     0.855262994766     0.000005279747     
16.854999542236     0.860544025898     0.000005346297     
16.959999084473     0.865826010704     0.000005412462     
17.065000534058     0.871106982231     0.000005480166     
17.170000076294     0.876388013363     0.000005546715     
17.274999618530     0.881669998169     0.000005615958     
17.379999160767     0.886785984039     0.000005684046     
17.485000610352     0.892068028450     0.000005752135     
17.590000152588     0.897348999977     0.000005821762     
17.694999694824     0.902630984783     0.000005894082     
17.799999237061     0.907912015915     0.000005964864     
17.905000686646     0.913028001785     0.000006036799     
18.010000228882     0.918474972248     0.000006111812     
18.114999771118     0.923756003380     0.000006187979     
18.219999313354     0.928873002529     0.000006262607     
18.325000762939     0.934153974056     0.000006340312     
18.430000305176     0.939436018467     0.000006419941     
18.534999847412     0.944552004337     0.000006500724     
18.639999389648     0.949998021126     0.000006583815     
18.745000839233     0.955280005932     0.000006668830     
18.850000381470     0.960395991802     0.000006755383     
18.954999923706     0.965677976608     0.000006844629     
19.059999465942     0.970959007740     0.000006935029     
19.165000915527     0.976240992546     0.000007026583     
19.270000457764     0.981522023678     0.000007121984     
19.375000000000     0.986802995205     0.000007220078     
19.479999542236     0.992084980011     0.000007320095     
19.584999084473     0.997366011143     0.000007421266     
19.690000534058     1.002483010292     0.000007527053     
19.795000076294     1.007763981819     0.000007633994     
19.899999618530     1.013046026230     0.000007742090     
20.004999160767     1.018326997757     0.000007852878     
20.110000610352     1.023607969284     0.000007967128     
20.215000152588     1.028725028038     0.000008084456     
20.319999694824     1.034170985222     0.000008202168     
20.424999237061     1.039288043976     0.000008323727     
20.530000686646     1.044569015503     0.000008445287     
20.635000228882     1.049850940704     0.000008571077     
20.739999771118     1.055132031441     0.000008696483     
20.844999313354     1.060248017311     0.000008823428     
20.950000762939     1.065529942513     0.000008953066     
21.055000305176     1.070811033249     0.000009084626     
21.159999847412     1.076092958450     0.000009215418     
21.264999389648     1.081374049187     0.000009348518     
21.370000839233     1.086655974388     0.000009483156     
21.424999237061     1.096063017845     0.000009731196     
21.530000686646     1.101179957390     0.000009864918     
21.635000228882     1.106461048126     0.000010002462     
21.739999771118     1.111742019653     0.000010140005     
21.844999313354     1.117023944855     0.000010273728     
21.950000762939     1.122305035591     0.000010415092     
22.055000305176     1.127586960793     0.000010556456     
22.159999847412     1.132868051529     0.000010693999     
22.264999389648     1.137984991074     0.000010835363     
22.370000839233     1.143430948257     0.000010976727     
22.475000381470     1.148712992668     0.000011118092     
22.579999923706     1.153993964195     0.000011263276     
22.684999465942     1.159109950066     0.000011404640     
22.790000915527     1.164391994476     0.000011549825     
22.895000457764     1.169672966003     0.000011698830     
23.000000000000     1.174790024757     0.000011847836     
23.104999542236     1.180070996284     0.000011996841     
23.209999084473     1.185351967812     0.000012149667     
23.315000534058     1.190798997879     0.000012302493     
23.420000076294     1.195914983749     0.000012459140     
23.524999618530     1.197896003723     0.000012325417     
23.629999160767     1.192945003510     0.000011706472     
23.735000610352     1.187662959099     0.000011167760     
23.840000152588     1.182381987572     0.000010690179     
23.944999694824     1.177099943161     0.000010254625     
24.049999237061     1.171983957291     0.000009849636     
24.155000686646     1.166702032089     0.000009475212     
24.260000228882     1.161420941353     0.000009127533     
24.364999771118     1.156139969826     0.000008798957     
24.469999313354     1.150858044624     0.000008493305     
24.575000762939     1.145576953888     0.000008202936     
24.680000305176     1.140295028687     0.000007927849     
24.784999847412     1.135014057159     0.000007668045     
24.889999389648     1.129732012749     0.000007419702     
24.995000839233     1.124616026878     0.000007186643     
25.100000381470     1.119168996811     0.000006961224     
25.204999923706     1.114053010941     0.000006747268     
25.309999465942     1.108772039413     0.000006548594     
25.415000915527     1.103489995003     0.000006353741     
25.520000457764     1.098209023476     0.000006170350     
25.625000000000     1.092926979065     0.000005994600     
25.729999542236     1.087646007538     0.000005830312     
25.834999084473     1.082363963127     0.000005669845     
25.940000534058     1.077082991600     0.000005517019     
26.045000076294     1.071802020073     0.000005371834     
26.149999618530     1.066684961319     0.000005230470     
26.254999160767     1.061403989792     0.000005100568     
26.360000610352     1.056121945381     0.000004970666     
26.465000152588     1.050840973854     0.000004852226     
26.569999694824     1.045559048653     0.000004737606     
26.674999237061     1.040277957916     0.000004626807     
26.780000686646     1.034996986389     0.000004519829     
26.885000228882     1.029714941978     0.000004420492     
26.989999771118     1.024433970451     0.000004324976     
27.094999313354     1.019152045250     0.000004233280     
27.200000762939     1.014036059380     0.000004149226     
27.305000305176     1.008754014969     0.000004061351     
27.409999847412     1.003473043442     0.000003981117     
27.514999389648     0.998192012310     0.000003904704     
27.620000839233     0.992910027504     0.000003828291     
27.725000381470     0.987628996372     0.000003759520     
27.829999923706     0.982347011566     0.000003690748     
27.934999465942     0.977065980434     0.000003625797     
28.040000915527     0.971948981285     0.000003560846     
28.114999771118     0.963862001896     0.000003485595     
28.219999313354     0.958746016026     0.000003427508     
28.325000762939     0.953298985958     0.000003370960     
28.430000305176     0.948183000088     0.000003316335     
28.534999847412     0.942902028561     0.000003263634     
28.639999389648     0.937619984150     0.000003211702     
28.745000839233     0.932339012623     0.000003160924     
28.850000381470     0.927057027817     0.000003111685     
28.954999923706     0.921775996685     0.000003064369     
29.059999465942     0.916494011879     0.000003017438     
29.165000915527     0.911212980747     0.000002969737     
29.270000457764     0.906096994877     0.000002926268     
29.375000000000     0.900650024414     0.000002882799     
29.479999542236     0.895533978939     0.000002838561     
29.584999084473     0.890087008476     0.000002795862     
29.690000534058     0.884971022606     0.000002755085     
29.795000076294     0.879688978195     0.000002713155     
29.899999618530     0.874408006668     0.000002672764     
30.004999160767     0.869126021862     0.000002632757     
30.110000610352     0.863844990730     0.000002593904     
30.215000152588     0.858564019203     0.000002554667     
30.319999694824     0.853281974792     0.000002516968     
30.424999237061     0.848165988922     0.000002478500     
30.530000686646     0.842884004116     0.000002441955     
30.635000228882     0.837602972984     0.000002406180     
30.739999771118     0.832320988178     0.000002369250     
30.844999313354     0.827040016651     0.000002332706     
30.950000762939     0.821923971176     0.000002298084     
31.055000305176     0.816641986370     0.000002263848     
31.159999847412     0.811361014843     0.000002227688     
31.264999389648     0.806078970432     0.000002193836     
31.370000839233     0.800797998905     0.000002160753     
31.475000381470     0.795516014099     0.000002126517     
31.579999923706     0.790234982967     0.000002093049     
31.684999465942     0.784954011440     0.000002059967     
31.790000915527     0.779672026634     0.000002027269     
31.895000457764     0.774390995502     0.000001994956     
32.000000000000     0.769109010696     0.000001962642     
32.104999542236     0.763827979565     0.000001930329     
32.209999084473     0.758710980415     0.000001899170     
32.314998626709     0.753430008888     0.000001868396     
32.419998168945     0.748148977757     0.000001836467     
32.525001525879     0.742866992950     0.000001804539     
32.630001068115     0.737586021423     0.000001774918     
32.735000610352     0.732303977013     0.000001744144     
32.840000152588     0.727023005486     0.000001712215     
32.944999694824     0.721741020679     0.000001682979     
33.049999237061     0.716459989548     0.000001654128     
33.154998779297     0.711178004742     0.000001622969     
33.259998321533     0.706062018871     0.000001592964     
33.365001678467     0.700780987740     0.000001563728     
33.470001220703     0.695499002934     0.000001534877     
33.575000762939     0.690217971802     0.000001506026     
33.680000305176     0.684935986996     0.000001477175     
33.784999847412     0.679655015469     0.000001448324     
33.889999389648     0.674372971058     0.000001420627     
33.994998931885     0.669091999531     0.000001392545     
34.099998474121     0.663811028004     0.000001364079     
34.205001831055     0.658528983593     0.000001335612     
34.310001373291     0.653248012066     0.000001307915     
34.415000915527     0.648131012917     0.000001279064     
34.520000457764     0.642849981785     0.000001249444     
34.625000000000     0.637567996979     0.000001221362     
34.729999542236     0.632287025452     0.000001192511     
34.834999084473     0.627005994320     0.000001162506     
34.939998626709     0.621724009514     0.000001132116     
35.044998168945     0.616442978382     0.000001102880     
35.150001525879     0.611160993576     0.000001072106     
35.255001068115     0.606045007706     0.000001041331     
