
Cycle 1
Physical Cycle 1
Step 1

Time (s),          Potential (V),         Current (A)
0.104999996722     0.002475999994     -0.000001868298     
0.209999993443     0.007757000159     -0.000001119450     
0.314999997616     0.013039000332     -0.000000955162     
0.419999986887     0.018319999799     -0.000000852005     
0.444999992847     0.028718000278     -0.000000700889     
0.550000011921     0.033833999187     -0.000000647803     
0.654999971390     0.039115998894     -0.000000600487     
0.759999990463     0.044397000223     -0.000000558941     
0.865000009537     0.049678999931     -0.000000520473     
0.970000028610     0.054960001260     -0.000000483929     
1.075000047684     0.060240998864     -0.000000451231     
1.179999947548     0.065522998571     -0.000000419687     
1.284999966621     0.070638999343     -0.000000390067     
1.389999985695     0.076085999608     -0.000000362754     
1.495000004768     0.081202000380     -0.000000336596     
1.600000023842     0.086484000087     -0.000000311207     
1.705000042915     0.091765001416     -0.000000287357     
1.745000004768     0.101337999105     -0.000000244137     
1.850000023842     0.106784000993     -0.000000222975     
1.955000042915     0.112065002322     -0.000000203665     
2.059999942780     0.117347002029     -0.000000183891     
2.164999961853     0.122463002801     -0.000000165002     
2.269999980927     0.127745002508     -0.000000147584     
2.375000000000     0.132861003280     -0.000000129788     
2.480000019073     0.138308003545     -0.000000112329     
2.585000038147     0.143589004874     -0.000000096342     
2.690000057220     0.148705005646     -0.000000079892     
2.795000076294     0.153987005353     -0.000000063317     
2.900000095367     0.159268006682     -0.000000047877     
3.005000114441     0.164550006390     -0.000000032268     
3.109999895096     0.169666007161     -0.000000016155     
3.214999914169     0.175113007426     -0.000000000841     
3.319999933243     0.180228993297     0.000000014430     
3.345000028610     0.190296992660     0.000000043555     
3.450000047684     0.195412993431     0.000000059313     
3.555000066757     0.200529992580     0.000000074498     
3.599999904633     0.210267007351     0.000000107449     
3.704999923706     0.215549007058     0.000000122468     
3.809999942780     0.220829993486     0.000000138539     
3.914999961853     0.226111993194     0.000000155830     
4.019999980927     0.231392994523     0.000000172659     
4.125000000000     0.236673995852     0.000000189487     
4.230000019073     0.241955995560     0.000000207451     
4.335000038147     0.247071996331     0.000000225247     
4.440000057220     0.252353996038     0.000000242664     
4.545000076294     0.257634997368     0.000000261386     
4.650000095367     0.262917011976     0.000000280276     
4.755000114441     0.268032997847     0.000000298787     
4.860000133514     0.273313999176     0.000000318392     
4.965000152588     0.278596013784     0.000000338670     
5.070000171661     0.283876985312     0.000000358275     
5.175000190735     0.288994014263     0.000000379268     
5.280000209808     0.294440001249     0.000000400893     
5.385000228882     0.299555987120     0.000000422223     
5.489999771118     0.304838001728     0.000000444730     
5.594999790192     0.310119003057     0.000000468627     
5.699999809265     0.315400987864     0.000000492270     
5.804999828339     0.320517003536     0.000000517050     
5.909999847412     0.325798988342     0.000000542797     
6.014999866486     0.331079989672     0.000000569386     
6.119999885559     0.336362004280     0.000000596101     
6.224999904633     0.341643005610     0.000000624751     
6.329999923706     0.346758991480     0.000000653949     
6.434999942780     0.352041006088     0.000000683945     
6.539999961853     0.357322007418     0.000000715666     
6.644999980927     0.362603992224     0.000000747977     
6.750000000000     0.367884993553     0.000000780455     
6.855000019073     0.373167008162     0.000000814996     
6.960000038147     0.378282994032     0.000000849704     
7.065000057220     0.383563995361     0.000000884581     
7.170000076294     0.388680994511     0.000000921014     
7.275000095367     0.393961995840     0.000000958205     
7.380000114441     0.399244010448     0.000000994890     
7.405000209808     0.410136997700     0.000001075953     
7.510000228882     0.415417999029     0.000001113267     
7.614999771118     0.420699000359     0.000001150196     
7.719999790192     0.425815999508     0.000001188280     
7.824999809265     0.431097000837     0.000001226748     
7.929999828339     0.436378985643     0.000001264062     
8.034999847412     0.441659986973     0.000001301376     
8.140000343323     0.446942001581     0.000001339459     
8.244999885559     0.452223002911     0.000001376004     
8.350000381470     0.457504004240     0.000001412933     
8.454999923706     0.462785989046     0.000001449478     
8.560000419617     0.468066990376     0.000001484869     
8.664999961853     0.473183989525     0.000001519875     
8.770000457764     0.478630006313     0.000001556419     
8.875000000000     0.483747005463     0.000001591041     
8.979999542236     0.489028006792     0.000001625277     
9.085000038147     0.494309008121     0.000001660283     
9.189999580383     0.499590992928     0.000001694904     
9.295000076294     0.504872024059     0.000001727987     
9.399999618530     0.509989023209     0.000001762608     
9.505000114441     0.515434980392     0.000001796460     
9.609999656677     0.520551979542     0.000001829543     
9.715000152588     0.525833010674     0.000001863779     
9.819999694824     0.531113982201     0.000001898401     
9.925000190735     0.536396026611     0.000001931483     
10.029999732971     0.541676998138     0.000001966105     
10.135000228882     0.546958982944     0.000002000726     
10.239999771118     0.552240014076     0.000002034193     
10.345000267029     0.557357013226     0.000002068814     
10.449999809265     0.562637984753     0.000002104974     
10.555000305176     0.567920029163     0.000002139211     
10.659999847412     0.573201000690     0.000002174217     
10.765000343323     0.578481972218     0.000002210762     
10.869999885559     0.583764016628     0.000002246152     
10.975000381470     0.589044988155     0.000002281158     
11.079999923706     0.594326972961     0.000002317703     
11.185000419617     0.599443018436     0.000002353478     
11.289999961853     0.604889988899     0.000002389254     
11.395000457764     0.610171020031     0.000002425029     
11.500000000000     0.615451991558     0.000002460804     
11.604999542236     0.620568990707     0.000002495810     
11.710000038147     0.625850021839     0.000002531970     
11.814999580383     0.631132006645     0.000002567361     
11.920000076294     0.636412978172     0.000002601598     
12.024999618530     0.641695022583     0.000002636604     
12.130000114441     0.646811008453     0.000002672379     
12.234999656677     0.652257025242     0.000002706616     
12.340000152588     0.657374024391     0.000002742006     
12.444999694824     0.662654995918     0.000002777012     
12.550000190735     0.667936980724     0.000002812403     
12.654999732971     0.673218011856     0.000002846639     
12.760000228882     0.678499996662     0.000002883184     
12.864999771118     0.683781027794     0.000002917805     
12.970000267029     0.689061999321     0.000002953196     
13.074999809265     0.694343984127     0.000002988971     
13.180000305176     0.699625015259     0.000003024362     
13.284999847412     0.704907000065     0.000003059368     
13.390000343323     0.710187971592     0.000003095528     
13.494999885559     0.715304970741     0.000003130919     
13.600000381470     0.720586001873     0.000003165540     
13.704999923706     0.725866973400     0.000003201315     
13.810000419617     0.731149017811     0.000003237475     
13.914999961853     0.736429989338     0.000003272481     
14.020000457764     0.741711974144     0.000003308641     
14.125000000000     0.746993005276     0.000003345186     
14.229999542236     0.752110004425     0.000003380961     
14.335000038147     0.757390975952     0.000003417506     
14.439999580383     0.762672007084     0.000003454051     
14.545000076294     0.767953991890     0.000003490211     
14.649999618530     0.773235023022     0.000003527909     
14.755000114441     0.778517007828     0.000003565608     
14.859999656677     0.783797979355     0.000003602538     
14.965000152588     0.789080023766     0.000003639852     
15.069999694824     0.794360995293     0.000003678704     
15.175000190735     0.799642980099     0.000003716403     
15.279999732971     0.804924011230     0.000003752563     
15.385000228882     0.810039997101     0.000003792570     
15.489999771118     0.815321981907     0.000003830269     
15.595000267029     0.820603013039     0.000003867583     
15.699999809265     0.825884997845     0.000003906436     
15.805000305176     0.831166028976     0.000003944519     
15.909999847412     0.836448013783     0.000003982602     
16.014999389648     0.841563999653     0.000004021455     
16.120000839233     0.846844971180     0.000004059539     
16.225000381470     0.852127015591     0.000004098007     
16.329999923706     0.857407987118     0.000004136859     
16.434999465942     0.862689971924     0.000004176482     
16.540000915527     0.867971003056     0.000004214950     
16.645000457764     0.873252987862     0.000004253802     
16.750000000000     0.878534018993     0.000004293425     
16.854999542236     0.883814990520     0.000004333431     
16.959999084473     0.889096975327     0.000004372284     
17.065000534058     0.894378006458     0.000004412291     
17.170000076294     0.899495005608     0.000004452298     
17.274999618530     0.904941022396     0.000004492689     
17.379999160767     0.910058021545     0.000004534235     
17.485000610352     0.915338993073     0.000004575396     
17.590000152588     0.920620024204     0.000004617711     
17.694999694824     0.925902009010     0.000004660795     
17.799999237061     0.931182980537     0.000004703495     
17.905000686646     0.936465024948     0.000004745425     
18.010000228882     0.941745996475     0.000004790817     
18.114999771118     0.946862995625     0.000004835825     
18.219999313354     0.952144026756     0.000004879678     
18.325000762939     0.957424998283     0.000004927379     
18.430000305176     0.962706983089     0.000004975464     
18.534999847412     0.967988014221     0.000005023164     
18.639999389648     0.973269999027     0.000005072019     
18.745000839233     0.978550970554     0.000005123182     
18.850000381470     0.983833014965     0.000005173575     
18.954999923706     0.988949000835     0.000005226276     
19.059999465942     0.994229972363     0.000005281285     
19.165000915527     0.999512016773     0.000005336680     
19.270000457764     1.004793047905     0.000005392458     
19.375000000000     1.010074973106     0.000005451314     
19.479999542236     1.015355944633     0.000005509786     
19.584999084473     1.020637989044     0.000005570181     
19.690000534058     1.025753974915     0.000005634038     
19.795000076294     1.031034946442     0.000005700203     
19.899999618530     1.036481976509     0.000005766368     
20.004999160767     1.041597962379     0.000005833687     
20.110000610352     1.046880006790     0.000005905238     
20.215000152588     1.052160978317     0.000005974865     
20.319999694824     1.057443022728     0.000006047570     
20.424999237061     1.062559008598     0.000006121429     
20.530000686646     1.068006038666     0.000006196826     
20.635000228882     1.073122024536     0.000006275686     
20.739999771118     1.078402996063     0.000006354161     
20.844999313354     1.083685040474     0.000006434559     
20.950000762939     1.088966012001     0.000006516111     
21.055000305176     1.094248056412     0.000006599203     
21.159999847412     1.099529027939     0.000006683832     
21.264999389648     1.104645967484     0.000006770001     
21.370000839233     1.109927058220     0.000006858478     
21.475000381470     1.115208029747     0.000006947724     
21.579999923706     1.120489954948     0.000007036585     
21.684999465942     1.125771045685     0.000007127370     
21.790000915527     1.131052970886     0.000007218154     
21.895000457764     1.136333942413     0.000007310862     
22.000000000000     1.141615986824     0.000007407417     
22.104999542236     1.146731972694     0.000007502818     
22.209999084473     1.152012944221     0.000007597450     
22.315000534058     1.157294988632     0.000007694005     
22.420000076294     1.162575960159     0.000007790944     
22.524999618530     1.167858004570     0.000007889807     
22.629999160767     1.173138976097     0.000007989440     
22.735000610352     1.178421020508     0.000008089457     
22.840000152588     1.183701992035     0.000008190628     
22.944999694824     1.188817977905     0.000008290260     
23.049999237061     1.194100022316     0.000008393739     
23.155000686646     1.198060989380     0.000008422975     
23.260000228882     1.194100022316     0.000008085610     
23.364999771118     1.188817977905     0.000007734012     
23.469999313354     1.183537006378     0.000007410879     
23.575000762939     1.178421020508     0.000007109290     
23.680000305176     1.173138976097     0.000006825010     
23.784999847412     1.167858004570     0.000006557657     
23.889999389648     1.162575960159     0.000006302998     
23.995000839233     1.157294988632     0.000006065265     
24.100000381470     1.152178049088     0.000005838304     
24.204999923706     1.146896958351     0.000005622113     
24.309999465942     1.141615986824     0.000005417078     
24.415000915527     1.136333942413     0.000005220891     
24.520000457764     1.131217956543     0.000005033936     
24.625000000000     1.125936031342     0.000004856982     
24.729999542236     1.120654940605     0.000004688107     
24.834999084473     1.115373015404     0.000004526157     
24.940000534058     1.110092043877     0.000004371900     
25.045000076294     1.104810953140     0.000004226105     
25.149999618530     1.099529027939     0.000004085312     
25.254999160767     1.094248056412     0.000003951059     
25.360000610352     1.089130997658     0.000003824114     
25.465000152588     1.083850026131     0.000003701401     
25.569999694824     1.078567981720     0.000003585227     
25.674999237061     1.073287010193     0.000003475208     
25.780000686646     1.068006038666     0.000003368652     
25.885000228882     1.062723994255     0.000003267480     
25.989999771118     1.057443022728     0.000003172464     
26.094999313354     1.052160978317     0.000003080525     
26.200000762939     1.047044992447     0.000002992818     
26.305000305176     1.041762948036     0.000002910112     
26.409999847412     1.036481976509     0.000002830867     
26.514999389648     1.031201004982     0.000002754316     
26.620000839233     1.025918960571     0.000002682381     
26.725000381470     1.020637989044     0.000002613907     
26.829999923706     1.015521049500     0.000002548127     
26.934999465942     1.010239958763     0.000002485424     
27.040000915527     1.004958033562     0.000002425414     
27.145000457764     0.999677002430     0.000002367712     
27.250000000000     0.994395971298     0.000002312317     
27.354999542236     0.989113986492     0.000002260001     
27.459999084473     0.983833014965     0.000002208838     
27.565000534058     0.978716015816     0.000002159984     
27.670000076294     0.973434984684     0.000002113822     
27.774999618530     0.968152999878     0.000002068814     
27.879999160767     0.962872028351     0.000002024576     
27.985000610352     0.957590997219     0.000001983800     
28.090000152588     0.952144026756     0.000001942254     
28.194999694824     0.947027981281     0.000001903017     
28.299999237061     0.941745996475     0.000001865318     
28.405000686646     0.936630010605     0.000001828004     
28.510000228882     0.931182980537     0.000001791459     
28.614999771118     0.926066994667     0.000001757607     
28.719999313354     0.920785009861     0.000001723371     
28.825000762939     0.915503978729     0.000001689904     
28.930000305176     0.910223007202     0.000001657590     
29.034999847412     0.904941022396     0.000001626816     
29.139999389648     0.899659991264     0.000001595272     
29.245000839233     0.894378006458     0.000001565267     
29.350000381470     0.889096975327     0.000001536031     
29.454999923706     0.883979976177     0.000001506795     
29.559999465942     0.878534018993     0.000001478329     
29.665000915527     0.873417973518     0.000001451017     
29.770000457764     0.868135988712     0.000001423320     
29.875000000000     0.862855017185     0.000001396392     
29.979999542236     0.857572972775     0.000001370234     
30.084999084473     0.852292001247     0.000001344460     
30.190000534058     0.847010016441     0.000001318302     
30.295000076294     0.841893970966     0.000001294067     
30.399999618530     0.836448013783     0.000001269063     
30.504999160767     0.831166028976     0.000001244443     
30.610000610352     0.826049983501     0.000001220593     
30.715000152588     0.820767998695     0.000001197127     
30.819999694824     0.815487027168     0.000001173277     
30.924999237061     0.810204982758     0.000001150581     
31.030000686646     0.804924011230     0.000001128269     
31.135000228882     0.799642980099     0.000001105189     
31.239999771118     0.794360995293     0.000001082877     
31.344999313354     0.789245009422     0.000001061335     
31.450000762939     0.783797979355     0.000001039023     
31.555000305176     0.778517007828     0.000001017481     
31.659999847412     0.773400008678     0.000000996708     
31.764999389648     0.767953991890     0.000000975166     
31.870000839233     0.762838006020     0.000000954394     
31.975000381470     0.757556021214     0.000000934390     
32.080001831055     0.752274990082     0.000000914002     
32.185001373291     0.746993005276     0.000000893229     
32.290000915527     0.741711974144     0.000000873995     
32.395000457764     0.736429989338     0.000000853992     
32.500000000000     0.731314003468     0.000000834373     
32.604999542236     0.726032972336     0.000000815139     
32.709999084473     0.720750987530     0.000000796290     
32.814998626709     0.715470016003     0.000000777056     
32.919998168945     0.710187971592     0.000000758591     
33.025001525879     0.704907000065     0.000000740511     
33.130001068115     0.699625015259     0.000000721662     
33.235000610352     0.694343984127     0.000000704351     
33.340000152588     0.689061999321     0.000000686271     
33.444999694824     0.683781027794     0.000000667806     
33.549999237061     0.678499996662     0.000000650111     
33.654998779297     0.673382997513     0.000000633185     
33.759998321533     0.667936980724     0.000000615490     
33.865001678467     0.662819981575     0.000000598179     
33.970001220703     0.657539010048     0.000000581638     
34.075000762939     0.652257025242     0.000000563942     
34.180000305176     0.646975994110     0.000000547016     
34.284999847412     0.641695022583     0.000000530860     
34.389999389648     0.636412978172     0.000000514318     
34.494998931885     0.631296992302     0.000000497008     
34.599998474121     0.626015007496     0.000000480851     
34.705001831055     0.620568990707     0.000000464310     
34.810001373291     0.615451991558     0.000000446999     
34.915000915527     0.610171020031     0.000000431227     
35.020000457764     0.604889988899     0.000000415071     
35.125000000000     0.599608004093     0.000000398145     
