
Cycle 1
Physical Cycle 1
Step 1

Time (s),          Potential (V),         Current (A)
0.104999996722     0.002805999946     -0.000000225418     
0.209999993443     0.008086999878     -0.000000194853     
0.314999997616     0.013368999586     -0.000000171929     
0.419999986887     0.018650000915     -0.000000149005     
0.449999988079     0.028718000278     -0.000000092323     
0.555000007153     0.033833999187     -0.000000069627     
0.660000026226     0.039115998894     -0.000000046931     
0.764999985695     0.044397000223     -0.000000021927     
0.795000016689     0.054464999586     0.000000029492     
0.899999976158     0.059581000358     0.000000058016     
1.004999995232     0.064862996340     0.000000089653     
1.110000014305     0.070143997669     0.000000124109     
1.215000033379     0.075425997376     0.000000160795     
1.320000052452     0.080706998706     0.000000200299     
1.424999952316     0.085822999477     0.000000243211     
1.529999971390     0.091104999185     0.000000287806     
1.634999990463     0.096386000514     0.000000336019     
1.740000009537     0.101502999663     0.000000387346     
1.845000028610     0.106784000993     0.000000440397     
1.950000047684     0.112065002322     0.000000495678     
2.055000066757     0.117182001472     0.000000554367     
2.160000085831     0.122463002801     0.000000614612     
2.265000104904     0.127745002508     0.000000675783     
2.369999885559     0.133026003838     0.000000740320     
2.474999904633     0.138143002987     0.000000806666     
2.579999923706     0.143424004316     0.000000873137     
2.684999942780     0.148540005088     0.000000942512     
2.799999952316     0.160258993506     0.000001104034     
2.904999971390     0.165374994278     0.000001176354     
3.009999990463     0.170655995607     0.000001249059     
3.115000009537     0.175937995315     0.000001324457     
3.220000028610     0.181218996644     0.000001399854     
3.325000047684     0.186500996351     0.000001474867     
3.430000066757     0.191781997681     0.000001550264     
3.535000085831     0.197063997388     0.000001625662     
3.640000104904     0.202344998717     0.000001698751     
3.744999885559     0.207460999489     0.000001772225     
3.849999904633     0.212742999196     0.000001844161     
3.954999923706     0.218024000525     0.000001914557     
4.059999942780     0.223306000233     0.000001983800     
4.164999961853     0.228587001562     0.000002051888     
4.269999980927     0.233869001269     0.000002117669     
4.375000000000     0.239150002599     0.000002181141     
4.480000019073     0.244431003928     0.000002244229     
4.585000038147     0.249548003078     0.000002304239     
4.690000057220     0.254828989506     0.000002361172     
4.795000076294     0.260111004114     0.000002418105     
4.900000095367     0.265392005444     0.000002472729     
5.005000114441     0.270673990250     0.000002524277     
5.110000133514     0.275954991579     0.000002575439     
5.215000152588     0.281237006187     0.000002624678     
5.320000171661     0.286352992058     0.000002671225     
5.425000190735     0.291799008846     0.000002716617     
5.530000209808     0.297080993652     0.000002760856     
5.635000228882     0.302197009325     0.000002802786     
5.739999771118     0.307478994131     0.000002843947     
5.844999790192     0.312759995461     0.000002884338     
5.949999809265     0.318042010069     0.000002922037     
6.054999828339     0.323323011398     0.000002958582     
6.159999847412     0.328604012728     0.000002994742     
6.264999866486     0.333885997534     0.000003027824     
6.369999885559     0.339002013206     0.000003059368     
6.474999904633     0.344283998013     0.000003091297     
6.579999923706     0.349564999342     0.000003121686     
6.684999942780     0.354847013950     0.000003149383     
6.789999961853     0.360127985477     0.000003177465     
6.894999980927     0.365244001150     0.000003204008     
7.000000000000     0.370691001415     0.000003228243     
7.105000019073     0.375806987286     0.000003252478     
7.210000038147     0.381089001894     0.000003275943     
7.315000057220     0.386370003223     0.000003297486     
7.420000076294     0.391651988029     0.000003319412     
7.525000095367     0.396932989359     0.000003340570     
7.630000114441     0.402213990688     0.000003360958     
7.735000133514     0.407496005297     0.000003380192     
7.840000152588     0.412777006626     0.000003400965     
7.945000171661     0.417894005775     0.000003419429     
8.050000190735     0.423175007105     0.000003437894     
8.154999732971     0.428622007370     0.000003458667     
8.260000228882     0.433737993240     0.000003476747     
8.364999771118     0.439018994570     0.000003494827     
8.470000267029     0.444301009178     0.000003514830     
8.574999809265     0.449582010508     0.000003533680     
8.680000305176     0.454863995314     0.000003551375     
8.784999847412     0.460144996643     0.000003570994     
8.890000343323     0.465427011251     0.000003589843     
8.994999885559     0.470542997122     0.000003607538     
9.100000381470     0.475823998451     0.000003626388     
9.204999923706     0.481106013060     0.000003645237     
9.310000419617     0.486387014389     0.000003662548     
9.414999961853     0.491668999195     0.000003680628     
9.520000457764     0.496950000525     0.000003698708     
9.625000000000     0.502232015133     0.000003716018     
9.729999542236     0.507512986660     0.000003732175     
9.835000038147     0.512628972530     0.000003749486     
9.939999580383     0.518076002598     0.000003765642     
10.045000076294     0.523191988468     0.000003781799     
10.149999618530     0.528473973274     0.000003798725     
10.255000114441     0.533755004406     0.000003814497     
10.359999656677     0.539036989212     0.000003829884     
10.465000152588     0.544318020344     0.000003846810     
10.569999694824     0.549600005150     0.000003862582     
10.675000190735     0.554880976677     0.000003877584     
10.779999732971     0.560162007809     0.000003893741     
10.885000228882     0.565279006958     0.000003910282     
10.989999771118     0.570725023746     0.000003925670     
11.095000267029     0.575842022896     0.000003941442     
11.199999809265     0.581122994423     0.000003957213     
11.305000305176     0.586570024490     0.000003971831     
11.409999847412     0.591686010361     0.000003986065     
11.515000343323     0.596966981888     0.000004000298     
11.619999885559     0.602249026299     0.000004012992     
11.725000381470     0.607529997826     0.000004025687     
11.829999923706     0.612811982632     0.000004037996     
11.935000419617     0.617928028107     0.000004047613     
12.039999961853     0.623210012913     0.000004055307     
12.145000457764     0.628656029701     0.000004063770     
12.250000000000     0.633772015572     0.000004069156     
12.354999542236     0.639054000378     0.000004071079     
12.460000038147     0.644334971905     0.000004073387     
12.564999580383     0.649617016315     0.000004073387     
12.670000076294     0.654897987843     0.000004069925     
12.774999618530     0.660179972649     0.000004065309     
12.880000114441     0.665461003780     0.000004059154     
12.984999656677     0.670741975307     0.000004049922     
13.090000152588     0.676024019718     0.000004039535     
13.194999694824     0.681304991245     0.000004027995     
13.300000190735     0.686586976051     0.000004013377     
13.404999732971     0.691868007183     0.000003997990     
13.510000228882     0.697149991989     0.000003981448     
13.614999771118     0.702265977859     0.000003962984     
13.720000267029     0.707713007927     0.000003942980     
13.824999809265     0.712828993797     0.000003924516     
13.930000305176     0.718110024929     0.000003902589     
14.034999847412     0.723392009735     0.000003880277     
14.140000343323     0.728672981262     0.000003859120     
14.244999885559     0.733955025673     0.000003837578     
14.350000381470     0.739235997200     0.000003813727     
14.454999923706     0.744517982006     0.000003791801     
14.560000419617     0.749634027481     0.000003770258     
14.664999961853     0.754914999008     0.000003747178     
14.770000457764     0.760196983814     0.000003725251     
14.875000000000     0.765643000603     0.000003704093     
14.979999542236     0.770759999752     0.000003682551     
15.085000038147     0.776040971279     0.000003662163     
15.189999580383     0.781323015690     0.000003643698     
15.295000076294     0.786603987217     0.000003624849     
15.399999618530     0.791885018349     0.000003606769     
15.505000114441     0.797167003155     0.000003590997     
15.609999656677     0.802447974682     0.000003574071     
15.715000152588     0.807730019093     0.000003558684     
15.819999694824     0.812846004963     0.000003545989     
15.925000190735     0.818292975426     0.000003533295     
16.030000686646     0.823409020901     0.000003520985     
16.135000228882     0.828689992428     0.000003512522     
16.239999771118     0.833971977234     0.000003503290     
16.344999313354     0.839253008366     0.000003494442     
16.450000762939     0.844534993172     0.000003488672     
16.555000305176     0.849816024303     0.000003483286     
16.659999847412     0.855098009109     0.000003477901     
16.764999389648     0.860378980637     0.000003475978     
16.870000839233     0.865661025047     0.000003473669     
16.975000381470     0.870941996574     0.000003472515     
17.079999923706     0.876057982445     0.000003472515     
17.184999465942     0.881340026855     0.000003474439     
17.290000915527     0.886620998383     0.000003475978     
17.395000457764     0.891902983189     0.000003478670     
17.500000000000     0.897184014320     0.000003483286     
17.604999542236     0.902465999126     0.000003488672     
17.709999084473     0.907746970654     0.000003494058     
17.815000534058     0.913028001785     0.000003502136     
17.920000076294     0.918309986591     0.000003510214     
18.024999618530     0.923591017723     0.000003518677     
18.129999160767     0.928708016872     0.000003529063     
18.235000610352     0.933988988400     0.000003540219     
18.340000152588     0.939270973206     0.000003551375     
18.444999694824     0.944552004337     0.000003565224     
18.549999237061     0.949832975864     0.000003579457     
18.655000686646     0.955115020275     0.000003594844     
18.760000228882     0.960395991802     0.000003611001     
18.864999771118     0.965677976608     0.000003629465     
18.969999313354     0.970959007740     0.000003647161     
19.075000762939     0.976076006889     0.000003666779     
19.180000305176     0.981356978416     0.000003689091     
19.284999847412     0.986802995205     0.000003711402     
19.389999389648     0.991919994354     0.000003734868     
19.495000839233     0.997201025486     0.000003761411     
19.600000381470     1.002483010292     0.000003788338     
19.704999923706     1.007763981819     0.000003816420     
19.809999465942     1.013046026230     0.000003847195     
19.915000915527     1.018162012100     0.000003877584     
20.020000457764     1.023442983627     0.000003910667     
20.125000000000     1.028725028038     0.000003946442     
20.229999542236     1.034005999565     0.000003983756     
20.334999084473     1.039288043976     0.000004022225     
20.440000534058     1.044569015503     0.000004062616     
20.545000076294     1.049850940704     0.000004106470     
20.649999618530     1.055132031441     0.000004149939     
20.754999160767     1.060413002968     0.000004196100     
20.860000610352     1.065695047379     0.000004245340     
20.965000152588     1.070811033249     0.000004295733     
21.069999694824     1.076092958450     0.000004348049     
21.174999237061     1.081374049187     0.000004403828     
21.280000686646     1.086655974388     0.000004461146     
21.385000228882     1.091936945915     0.000004520002     
21.489999771118     1.097218036652     0.000004581935     
21.594999313354     1.102499961853     0.000004644254     
21.700000762939     1.107781052589     0.000004709649     
21.805000305176     1.112897992134     0.000004778892     
21.909999847412     1.118178963661     0.000004848904     
22.014999389648     1.123461008072     0.000004920455     
22.120000839233     1.128741979599     0.000004995852     
22.225000381470     1.134024024010     0.000005073558     
22.329999923706     1.139304995537     0.000005151263     
22.434999465942     1.144585967064     0.000005232046     
22.540000915527     1.149703025818     0.000005315522     
22.645000457764     1.154983997345     0.000005400537     
22.750000000000     1.160266041756     0.000005487859     
22.854999542236     1.165547013283     0.000005578644     
22.959999084473     1.170829057693     0.000005669429     
23.065000534058     1.176110029221     0.000005763675     
23.170000076294     1.181391000748     0.000005859846     
23.274999618530     1.186508059502     0.000005957170     
23.379999160767     1.191954016685     0.000006056418     
23.485000610352     1.197070956230     0.000006159512     
23.590000152588     1.197235941887     0.000005987560     
23.694999694824     1.191954016685     0.000005586722     
23.799999237061     1.186838030815     0.000005224737     
23.905000686646     1.181555986404     0.000004893527     
24.010000228882     1.176275014877     0.000004588860     
24.114999771118     1.171159029007     0.000004309581     
24.219999313354     1.165876984596     0.000004053384     
24.325000762939     1.160596013069     0.000003814881     
24.430000305176     1.155313968658     0.000003596383     
24.534999847412     1.150032997131     0.000003394810     
24.639999389648     1.144916057587     0.000003207470     
24.745000839233     1.139634966850     0.000003035133     
24.850000381470     1.134353995323     0.000002875106     
24.954999923706     1.129071950912     0.000002725850     
25.059999465942     1.123790979385     0.000002587364     
25.165000915527     1.118509054184     0.000002460035     
25.270000457764     1.113392949104     0.000002340015     
25.375000000000     1.108111023903     0.000002229611     
25.479999542236     1.102664947510     0.000002127286     
25.584999084473     1.097548961639     0.000002031116     
25.690000534058     1.092267036438     0.000001941100     
25.795000076294     1.087151050568     0.000001858779     
25.899999618530     1.081704020500     0.000001780688     
26.004999160767     1.076423048973     0.000001707599     
26.110000610352     1.071141004562     0.000001640280     
26.215000152588     1.065860033035     0.000001577577     
26.319999694824     1.060744047165     0.000001517567     
26.424999237061     1.055462002754     0.000001462557     
26.530000686646     1.050181031227     0.000001411010     
26.635000228882     1.044898986816     0.000001361771     
26.739999771118     1.039618015289     0.000001315994     
26.844999313354     1.034335970879     0.000001273679     
26.950000762939     1.029054999352     0.000001232903     
27.055000305176     1.023939013481     0.000001194819     
27.159999847412     1.018656969070     0.000001159813     
27.264999389648     1.013375997543     0.000001125961     
27.370000839233     1.008093953133     0.000001093648     
27.475000381470     1.002812981606     0.000001064412     
27.579999923706     0.997695982456     0.000001035946     
27.684999465942     0.992250025272     0.000001007864     
27.790000915527     0.986968994141     0.000000983245     
27.895000457764     0.981687009335     0.000000959394     
28.000000000000     0.976571023464     0.000000935160     
28.104999542236     0.971288979053     0.000000913617     
28.209999084473     0.966008007526     0.000000893229     
28.315000534058     0.960726022720     0.000000872072     
28.420000076294     0.955444991589     0.000000852838     
28.524999618530     0.950329005718     0.000000835142     
28.629999160767     0.944881975651     0.000000816678     
28.735000610352     0.939601004124     0.000000799752     
28.840000152588     0.934484004974     0.000000783595     
28.944999694824     0.929202973843     0.000000767823     
29.049999237061     0.923920989037     0.000000752051     
29.155000686646     0.918640017509     0.000000737818     
29.260000228882     0.913357973099     0.000000723585     
29.364999771118     0.908241987228     0.000000708967     
29.469999313354     0.902795970440     0.000000696273     
29.575000762939     0.897678971291     0.000000682809     
29.680000305176     0.892233014107     0.000000669730     
29.784999847412     0.887116014957     0.000000658189     
29.889999389648     0.881834983826     0.000000646264     
29.995000839233     0.876552999020     0.000000633185     
30.100000381470     0.871272027493     0.000000622414     
30.204999923706     0.865990996361     0.000000611643     
30.309999465942     0.860709011555     0.000000599718     
30.415000915527     0.855427980423     0.000000588947     
30.520000457764     0.850145995617     0.000000578945     
30.625000000000     0.845030009747     0.000000567789     
30.729999542236     0.839582979679     0.000000557787     
30.834999084473     0.834466993809     0.000000548170     
30.940000534058     0.829186022282     0.000000537399     
31.045000076294     0.823903977871     0.000000527013     
31.149999618530     0.818623006344     0.000000518550     
31.254999160767     0.813341021538     0.000000508164     
31.360000610352     0.808059990406     0.000000498162     
31.465000152588     0.802778005600     0.000000489699     
31.569999694824     0.797496974468     0.000000480467     
31.674999237061     0.792216002941     0.000000470080     
31.780000686646     0.786934018135     0.000000462387     
31.885000228882     0.781652987003     0.000000453154     
31.989999771118     0.776535987854     0.000000443153     
32.095001220703     0.771255016327     0.000000434305     
32.200000762939     0.765972971916     0.000000425842     
32.305000305176     0.760692000389     0.000000416994     
32.409999847412     0.755411028862     0.000000407762     
32.514999389648     0.750128984451     0.000000399299     
32.619998931885     0.744848012924     0.000000390451     
32.724998474121     0.739566028118     0.000000381219     
32.830001831055     0.734449982643     0.000000373525     
32.935001373291     0.729167997837     0.000000364293     
33.040000915527     0.723887026310     0.000000355830     
33.145000457764     0.718604981899     0.000000348136     
33.205001831055     0.709858000278     0.000000333117     
33.310001373291     0.704577028751     0.000000326259     
33.415000915527     0.699294984341     0.000000317677     
33.520000457764     0.694014012814     0.000000308547     
33.625000000000     0.688732028008     0.000000300301     
33.729999542236     0.683615982533     0.000000292602     
33.834999084473     0.678335011005     0.000000283473     
33.939998626709     0.673053026199     0.000000275101     
34.044998168945     0.667771995068     0.000000267234     
34.150001525879     0.662490010262     0.000000258441     
34.255001068115     0.657208979130     0.000000249985     
34.360000610352     0.651926994324     0.000000242244     
34.465000152588     0.646646022797     0.000000233114     
34.569999694824     0.641363978386     0.000000224784     
34.674999237061     0.636247992516     0.000000217422     
34.779998779297     0.630967020988     0.000000208166     
34.884998321533     0.625684976578     0.000000199626     
34.990001678467     0.620404005051     0.000000192179     
35.095001220703     0.615122020245     0.000000183639     
35.200000762939     0.610005974770     0.000000174552     
35.305000305176     0.604559004307     0.000000166600     
