
Cycle 1
Physical Cycle 1
Step 1

Time (s),          Potential (V),         Current (A)
0.104999996722     0.002318999963     -0.000000225457     
0.209999993443     0.007619999815     -0.000000206351     
0.314999997616     0.012920999900     -0.000000191066     
0.419999986887     0.018055999652     -0.000000175780     
0.449999988079     0.028161000460     -0.000000153031     
0.555000007153     0.033461999148     -0.000000140696     
0.660000026226     0.038598001003     -0.000000129903     
0.764999985695     0.043898999691     -0.000000119881     
0.795000016689     0.054003998637     -0.000000102638     
0.899999976158     0.059305001050     -0.000000093941     
1.004999995232     0.064606003463     -0.000000086169     
1.110000014305     0.069741003215     -0.000000079321     
1.215000033379     0.075042001903     -0.000000071842     
1.320000052452     0.080343000591     -0.000000065036     
1.424999952316     0.085643999279     -0.000000060079     
1.529999971390     0.090778999031     -0.000000054827     
1.634999990463     0.096079997718     -0.000000048777     
1.740000009537     0.101380996406     -0.000000043778     
1.845000028610     0.106516003609     -0.000000039240     
1.950000047684     0.111983001232     -0.000000034283     
2.055000066757     0.117118000984     -0.000000030081     
2.160000085831     0.122418999672     -0.000000026846     
2.265000104904     0.127719998360     -0.000000022645     
2.369999885559     0.132855996490     -0.000000017982     
2.404999971390     0.142794996500     -0.000000011308     
2.509999990463     0.148095995188     -0.000000007694     
2.615000009537     0.153230994940     -0.000000005370     
2.720000028610     0.158531993628     -0.000000002169     
2.825000047684     0.163833007216     0.000000001870     
2.930000066757     0.168969005346     0.000000004873     
3.035000085831     0.174269005656     0.000000007797     
3.140000104904     0.179570004344     0.000000011699     
3.244999885559     0.184706002474     0.000000014759     
3.349999904633     0.190007001162     0.000000017152     
3.454999923706     0.195142000914     0.000000020913     
3.559999942780     0.200442999601     0.000000024906     
3.664999961853     0.205743998289     0.000000027656     
3.769999980927     0.211044996977     0.000000030625     
3.875000000000     0.216179996729     0.000000034550     
3.980000019073     0.221480995417     0.000000038012     
4.085000038147     0.226616993546     0.000000041144     
4.190000057220     0.231918007135     0.000000045581     
4.295000076294     0.237219005823     0.000000049752     
4.400000095367     0.242354005575     0.000000052592     
4.505000114441     0.247655004263     0.000000056468     
4.610000133514     0.252790004015     0.000000061110     
4.715000152588     0.258091002703     0.000000064924     
4.820000171661     0.263392001390     0.000000068834     
4.925000190735     0.268527001143     0.000000073847     
5.030000209808     0.273827999830     0.000000078098     
5.135000228882     0.278964012861     0.000000081666     
5.239999771118     0.284265011549     0.000000086653     
5.349999904633     0.290890991688     0.000000093605     
5.454999923706     0.296191990376     0.000000098269     
5.559999942780     0.301326990128     0.000000102302     
5.664999961853     0.306627988815     0.000000107554     
5.769999980927     0.311928987503     0.000000113645     
5.875000000000     0.317229986191     0.000000118477     
5.980000019073     0.322364985943     0.000000123224     
6.085000038147     0.327666014433     0.000000129022     
6.190000057220     0.332967013121     0.000000134610     
6.295000076294     0.338102996349     0.000000139820     
6.400000095367     0.343403995037     0.000000146290     
6.505000114441     0.348704993725     0.000000152340     
6.610000133514     0.354005992413     0.000000157255     
6.715000152588     0.359306991100     0.000000162759     
6.820000171661     0.364607989788     0.000000169313     
6.925000190735     0.369908988476     0.000000175195     
7.030000209808     0.375043988228     0.000000180698     
7.135000228882     0.380344986916     0.000000187042     
7.239999771118     0.385479986668     0.000000192756     
7.344999790192     0.390780985355     0.000000197798     
7.449999809265     0.396082013845     0.000000203848     
7.554999828339     0.401383012533     0.000000210318     
7.659999847412     0.406684011221     0.000000215527     
7.764999866486     0.411819010973     0.000000220569     
7.869999885559     0.417120009661     0.000000226661     
7.974999904633     0.422421008348     0.000000232206     
8.079999923706     0.427722007036     0.000000237290     
8.185000419617     0.433023005724     0.000000243424     
8.289999961853     0.438158988953     0.000000249306     
8.395000457764     0.443625003099     0.000000253591     
8.500000000000     0.448760002851     0.000000258885     
8.604999542236     0.454061001539     0.000000264935     
8.710000038147     0.459197014570     0.000000270228     
8.814999580383     0.464498013258     0.000000275270     
8.920000076294     0.469799011946     0.000000280858     
9.024999618530     0.475100010633     0.000000286151     
9.130000114441     0.480235010386     0.000000290773     
9.234999656677     0.485536009073     0.000000296570     
9.340000152588     0.490837007761     0.000000302620     
9.444999694824     0.496138006449     0.000000307410     
9.550000190735     0.501438975334     0.000000312031     
9.654999732971     0.506573975086     0.000000317913     
9.760000228882     0.511874973774     0.000000323165     
9.864999771118     0.517010986805     0.000000328206     
9.970000267029     0.522476971149     0.000000334340     
10.074999809265     0.527611970901     0.000000340096     
10.180000305176     0.532913029194     0.000000344423     
10.284999847412     0.538214027882     0.000000349549     
10.390000343323     0.543515026569     0.000000355935     
10.494999885559     0.548816025257     0.000000361313     
10.600000381470     0.553951978683     0.000000366522     
10.704999923706     0.559252977371     0.000000372320     
10.810000419617     0.564553976059     0.000000377908     
10.914999961853     0.569688975811     0.000000382571     
11.020000457764     0.574989974499     0.000000388705     
11.125000000000     0.580290973186     0.000000394965     
11.229999542236     0.585591971874     0.000000400175     
11.335000038147     0.590892970562     0.000000405174     
11.439999580383     0.596027970314     0.000000411182     
11.545000076294     0.601329028606     0.000000416854     
11.649999618530     0.606630027294     0.000000422316     
11.755000114441     0.611931025982     0.000000428786     
11.859999656677     0.617232024670     0.000000434710     
11.965000152588     0.622367024422     0.000000439541     
12.069999694824     0.627668023109     0.000000444919     
12.175000190735     0.632969021797     0.000000451557     
12.279999732971     0.638270020485     0.000000457355     
12.385000228882     0.643405973911     0.000000462900     
12.489999771118     0.648706972599     0.000000469160     
12.595000267029     0.654007971287     0.000000475000     
12.699999809265     0.659142971039     0.000000480336     
12.805000305176     0.664444029331     0.000000486806     
12.909999847412     0.669745028019     0.000000493822     
13.015000343323     0.675046026707     0.000000499410     
13.119999885559     0.680181026459     0.000000504745     
13.225000381470     0.685648024082     0.000000511594     
13.329999923706     0.690783023834     0.000000517980     
13.435000419617     0.696084022522     0.000000524113     
13.539999961853     0.701385021210     0.000000531340     
13.645000457764     0.706686019897     0.000000538146     
13.750000000000     0.711987018585     0.000000543734     
13.854999542236     0.717122018337     0.000000550414     
13.960000038147     0.722423017025     0.000000557850     
14.064999580383     0.727724015713     0.000000564488     
14.170000076294     0.732859015465     0.000000571210     
14.274999618530     0.738160014153     0.000000578604     
14.380000114441     0.743461012840     0.000000585537     
14.484999656677     0.748762011528     0.000000591881     
14.590000152588     0.753898024559     0.000000599443     
14.694999694824     0.759199023247     0.000000607551     
14.800000190735     0.764500021935     0.000000613937     
14.904999732971     0.769801020622     0.000000620660     
15.010000228882     0.775102019310     0.000000628558     
15.114999771118     0.780237019062     0.000000635994     
15.220000267029     0.785538017750     0.000000643053     
15.324999809265     0.790839016438     0.000000650951     
15.430000305176     0.796140015125     0.000000658891     
15.534999847412     0.801275014877     0.000000665025     
15.640000343323     0.806576013565     0.000000672084     
15.744999885559     0.811877012253     0.000000680402     
15.850000381470     0.817012012005     0.000000687418     
15.954999923706     0.822479009628     0.000000694435     
16.059999465942     0.827614009380     0.000000701913     
16.165000915527     0.832915008068     0.000000709139     
16.270000457764     0.838216006756     0.000000715567     
16.375000000000     0.843352019787     0.000000723466     
16.479999542236     0.848653018475     0.000000730986     
16.584999084473     0.853954017162     0.000000737372     
16.690000534058     0.859255015850     0.000000743884     
16.795000076294     0.864390015602     0.000000751404     
16.899999618530     0.869691014290     0.000000758336     
17.004999160767     0.874992012978     0.000000765185     
17.110000610352     0.880293011665     0.000000772789     
17.215000152588     0.885594010353     0.000000779805     
17.319999694824     0.890729010105     0.000000785393     
17.424999237061     0.896030008793     0.000000792199     
17.530000686646     0.901331007481     0.000000799593     
17.635000228882     0.906466007233     0.000000806189     
17.739999771118     0.911767005920     0.000000812323     
17.844999313354     0.917234003544     0.000000819339     
17.950000762939     0.922369003296     0.000000825809     
18.055000305176     0.927670001984     0.000000831565     
18.159999847412     0.932806015015     0.000000838708     
18.264999389648     0.938107013702     0.000000845766     
18.370000839233     0.943242013454     0.000000851479     
18.475000381470     0.948707997799     0.000000857487     
18.579999923706     0.953844010830     0.000000864504     
18.684999465942     0.959145009518     0.000000870932     
18.790000915527     0.964446008205     0.000000877276     
18.895000457764     0.969747006893     0.000000884334     
19.000000000000     0.974882006645     0.000000890846     
19.104999542236     0.980183005333     0.000000896265     
19.209999084473     0.985484004021     0.000000903030     
19.315000534058     0.990785002708     0.000000910634     
19.420000076294     0.996086001396     0.000000917356     
19.524999618530     1.001387000084     0.000000923952     
19.629999160767     1.006522059441     0.000000931262     
19.735000610352     1.011823058128     0.000000938447     
19.840000152588     1.017124056816     0.000000945001     
19.944999694824     1.022425055504     0.000000953235     
20.049999237061     1.027559995651     0.000000961386     
20.155000686646     1.032860994339     0.000000968696     
20.260000228882     1.038161993027     0.000000976384     
20.364999771118     1.043462991714     0.000000985375     
20.469999313354     1.048763990402     0.000000994114     
20.575000762939     1.053900003433     0.000001002685     
20.680000305176     1.059201002121     0.000001012264     
20.784999847412     1.064502000809     0.000001022053     
20.889999389648     1.069636940956     0.000001031043     
20.915000915527     1.080569982529     0.000001057339     
21.020000457764     1.085705041885     0.000001068903     
21.125000000000     1.091171979904     0.000001079310     
21.229999542236     1.096307039261     0.000001090874     
21.334999084473     1.101608037949     0.000001103595     
21.440000534058     1.106909036636     0.000001116315     
21.545000076294     1.112210035324     0.000001129807     
21.649999618530     1.117511034012     0.000001144069     
21.754999160767     1.122647047043     0.000001159102     
21.860000610352     1.127948045731     0.000001173750     
21.965000152588     1.133082985878     0.000001189940     
22.069999694824     1.138550043106     0.000001207286     
22.174999237061     1.143684983253     0.000001225017     
22.280000686646     1.148985981941     0.000001242749     
22.385000228882     1.154286980629     0.000001262408     
22.489999771118     1.159587979317     0.000001282452     
22.594999313354     1.164723038673     0.000001302882     
22.700000762939     1.170024037361     0.000001325624     
22.805000305176     1.175325036049     0.000001349523     
22.909999847412     1.180459976196     0.000001372652     
23.014999389648     1.185927033424     0.000001397322     
23.120000839233     1.191061973572     0.000001423919     
23.225000381470     1.196362972260     0.000001451287     
23.329999923706     1.197854042053     0.000001418908     
23.434999465942     1.192885041237     0.000001313289     
23.540000915527     1.187584042549     0.000001221934     
23.645000457764     1.182283043861     0.000001139829     
23.750000000000     1.176982045174     0.000001067361     
23.854999542236     1.171846032143     0.000001002602     
23.959999084473     1.166545033455     0.000000943626     
24.065000534058     1.161244034767     0.000000889660     
24.170000076294     1.155943036079     0.000000841477     
24.274999618530     1.150642037392     0.000000796762     
24.379999160767     1.145506978035     0.000000755903     
24.485000610352     1.140205979347     0.000000718898     
24.590000152588     1.134904980659     0.000000685362     
24.694999694824     1.129603981972     0.000000652597     
24.799999237061     1.124302983284     0.000000623302     
24.905000686646     1.119168043137     0.000000596704     
25.010000228882     1.113867044449     0.000000571649     
25.114999771118     1.108566045761     0.000000548135     
25.219999313354     1.103265047073     0.000000526549     
25.325000762939     1.098129987717     0.000000506119     
25.430000305176     1.092828989029     0.000000486846     
25.534999847412     1.087527990341     0.000000469500     
25.639999389648     1.082226991653     0.000000453696     
25.745000839233     1.077090978622     0.000000437506     
25.850000381470     1.071624994278     0.000000422858     
25.954999923706     1.066488981247     0.000000409752     
26.059999465942     1.061187982559     0.000000396261     
26.165000915527     1.056053042412     0.000000383926     
26.270000457764     1.050752043724     0.000000373133     
26.375000000000     1.045451045036     0.000000362725     
26.479999542236     1.040150046349     0.000000351547     
26.584999084473     1.034849047661     0.000000341910     
26.625000000000     1.025241017342     0.000000325433     
26.729999542236     1.019775032997     0.000000317157     
26.834999084473     1.014639019966     0.000000309595     
26.940000534058     1.009338021278     0.000000301906     
27.045000076294     1.004202961922     0.000000293672     
27.149999618530     0.998902022839     0.000000287033     
27.254999160767     0.993601024151     0.000000281278     
27.360000610352     0.988300025463     0.000000274682     
27.465000152588     0.983165025711     0.000000267876     
27.569999694824     0.977864027023     0.000000262456     
27.674999237061     0.972563028336     0.000000256952     
27.780000686646     0.967262029648     0.000000250944     
27.885000228882     0.962126970291     0.000000246533     
27.989999771118     0.956659972668     0.000000242037     
28.094999313354     0.951524972916     0.000000236072     
28.200000762939     0.946223974228     0.000000231030     
28.305000305176     0.940922975540     0.000000226955     
28.409999847412     0.935621976852     0.000000222333     
28.514999389648     0.930486023426     0.000000218048     
28.620000839233     0.925185024738     0.000000214477     
28.725000381470     0.919884026051     0.000000210192     
28.829999923706     0.914583027363     0.000000205318     
28.934999465942     0.909448027611     0.000000201789     
29.040000915527     0.904147028923     0.000000198680     
29.145000457764     0.898845970631     0.000000194773     
29.250000000000     0.893544971943     0.000000190655     
29.354999542236     0.888409972191     0.000000187210     
29.459999084473     0.883108973503     0.000000183387     
29.565000534058     0.877807974815     0.000000179690     
29.670000076294     0.872506976128     0.000000177253     
29.774999618530     0.867371976376     0.000000174228     
29.879999160767     0.862070977688     0.000000170195     
29.985000610352     0.856769979000     0.000000166330     
30.090000152588     0.851468980312     0.000000163809     
30.194999694824     0.846167981625     0.000000160616     
30.299999237061     0.840866982937     0.000000157297     
30.405000686646     0.835731029510     0.000000154608     
30.510000228882     0.830430984497     0.000000151541     
30.614999771118     0.825129985809     0.000000147466     
30.719999313354     0.819828987122     0.000000144903     
30.825000762939     0.814692974091     0.000000142634     
30.930000305176     0.809391975403     0.000000139273     
31.034999847412     0.804090976715     0.000000135492     
31.139999389648     0.798789978027     0.000000133055     
31.245000839233     0.793654978275     0.000000129947     
31.350000381470     0.788353979588     0.000000126375     
31.454999923706     0.783052980900     0.000000124359     
31.559999465942     0.777751982212     0.000000121964     
31.665000915527     0.772450983524     0.000000117889     
31.770000457764     0.767149984837     0.000000114528     
31.875000000000     0.762014985085     0.000000112259     
31.979999542236     0.756713986397     0.000000109444     
32.084999084473     0.751412987709     0.000000106167     
32.189998626709     0.746111989021     0.000000103814     
32.294998168945     0.740976989269     0.000000100663     
32.400001525879     0.735675990582     0.000000097218     
32.505001068115     0.730374991894     0.000000094277     
32.610000610352     0.725073993206     0.000000092177     
32.715000152588     0.719937980175     0.000000089278     
32.819999694824     0.714636981487     0.000000085581     
32.924999237061     0.709335982800     0.000000083018     
33.029998779297     0.704034984112     0.000000079993     
33.134998321533     0.698899984360     0.000000076968     
33.240001678467     0.693598985672     0.000000074657     
33.345001220703     0.688297986984     0.000000071884     
33.450000762939     0.682996988297     0.000000068019     
33.555000305176     0.677861988544     0.000000064994     
33.659999847412     0.672394990921     0.000000062684     
33.764999389648     0.667259991169     0.000000059575     
33.869998931885     0.661958992481     0.000000056550     
33.974998474121     0.656657993793     0.000000054113     
34.080001831055     0.651522994041     0.000000050878     
34.185001373291     0.646055996418     0.000000047265     
34.290000915527     0.640920996666     0.000000044912     
34.395000457764     0.635619997978     0.000000042895     
34.500000000000     0.630318999290     0.000000040501     
34.604999542236     0.625182986259     0.000000036635     
34.709999084473     0.619883000851     0.000000034619     
34.814998626709     0.614582002163     0.000000032056     
34.919998168945     0.609281003475     0.000000029619     
35.025001525879     0.603980004787     0.000000028401     
35.130001068115     0.598843991756     0.000000026720     
