
Cycle 1
Physical Cycle 1
Step 1

Time (s),          Potential (V),         Current (A)
0.104999996722     0.002485000063     -0.000004016197     
0.209999993443     0.007619999815     -0.000003515605     
0.314999997616     0.012920999900     -0.000003087618     
0.419999986887     0.018222000450     -0.000002728415     
0.524999976158     0.023522999138     -0.000002415068     
0.569999992847     0.032965000719     -0.000001979378     
0.675000011921     0.038100998849     -0.000001771225     
0.779999971390     0.043402001262     -0.000001591983     
0.884999990463     0.048702999949     -0.000001434712     
0.990000009537     0.054003998637     -0.000001295558     
1.095000028610     0.059305001050     -0.000001173365     
1.200000047684     0.064439997077     -0.000001066204     
1.304999947548     0.069741003215     -0.000000970223     
1.409999966621     0.075042001903     -0.000000885805     
1.514999985695     0.080343000591     -0.000000811025     
1.620000004768     0.085478000343     -0.000000742797     
1.725000023842     0.090778999031     -0.000000680736     
1.830000042915     0.096079997718     -0.000000625229     
1.934999942780     0.101380996406     -0.000000575504     
2.039999961853     0.106516003609     -0.000000529633     
2.144999980927     0.111817002296     -0.000000487617     
2.250000000000     0.116953000426     -0.000000449456     
2.355000019073     0.122253999114     -0.000000412836     
2.460000038147     0.127554997802     -0.000000379301     
2.565000057220     0.132855996490     -0.000000349234     
2.670000076294     0.138156995177     -0.000000321095     
2.775000095367     0.143457993865     -0.000000293341     
2.880000114441     0.148592993617     -0.000000268286     
2.940000057220     0.157206997275     -0.000000230484     
3.045000076294     0.162673994899     -0.000000208637     
3.150000095367     0.167808994651     -0.000000189269     
3.255000114441     0.172943994403     -0.000000170069     
3.359999895096     0.178244993091     -0.000000150743     
3.464999914169     0.183546006680     -0.000000132677     
3.569999933243     0.188847005367     -0.000000115746     
3.674999952316     0.194148004055     -0.000000098941     
3.779999971390     0.199283003807     -0.000000083144     
3.884999990463     0.204584002495     -0.000000069196     
3.990000009537     0.209885001183     -0.000000054323     
4.094999790192     0.215020999312     -0.000000039114     
4.199999809265     0.220321998000     -0.000000025670     
4.304999828339     0.225622996688     -0.000000012436     
4.409999847412     0.230923995376     0.000000000672     
4.514999866486     0.236224994063     0.000000012688     
4.554999828339     0.245335996151     0.000000032828     
4.659999847412     0.250636994839     0.000000045118     
4.764999866486     0.255937993526     0.000000056131     
4.869999885559     0.261072993279     0.000000066911     
4.974999904633     0.266207993031     0.000000078307     
5.025000095367     0.275651007891     0.000000102596     
5.130000114441     0.280952006578     0.000000113099     
5.235000133514     0.286253005266     0.000000123477     
5.340000152588     0.291554003954     0.000000135408     
5.445000171661     0.296689003706     0.000000146332     
5.550000190735     0.301990002394     0.000000157213     
5.655000209808     0.307291001081     0.000000170069     
5.760000228882     0.312426000834     0.000000182883     
5.864999771118     0.317892998457     0.000000194311     
5.969999790192     0.323027998209     0.000000206746     
6.074999809265     0.328328996897     0.000000220065     
6.179999828339     0.333463996649     0.000000233761     
6.284999847412     0.338764995337     0.000000247205     
6.389999866486     0.344065994024     0.000000261994     
6.494999885559     0.349202007055     0.000000276236     
6.599999904633     0.354503005743     0.000000290142     
6.704999923706     0.359804004431     0.000000304721     
6.809999942780     0.365105003119     0.000000320728     
6.914999961853     0.370240002871     0.000000336525     
7.019999980927     0.375541001558     0.000000352238     
7.125000000000     0.380842000246     0.000000367993     
7.230000019073     0.386142998934     0.000000382865     
7.335000038147     0.391277998686     0.000000397822     
7.440000057220     0.396744996309     0.000000415384     
7.545000076294     0.401879996061     0.000000432399     
7.650000095367     0.407014995813     0.000000447986     
7.755000114441     0.412315994501     0.000000462900     
7.860000133514     0.417616993189     0.000000478655     
7.965000152588     0.422917991877     0.000000495376     
8.069999694824     0.428054004908     0.000000511636     
8.175000190735     0.433355003595     0.000000529617     
8.279999732971     0.438654989004     0.000000546800     
8.385000228882     0.443955987692     0.000000562345     
8.489999771118     0.449092000723     0.000000578184     
8.595000267029     0.454392999411     0.000000595536     
8.699999809265     0.459527999163     0.000000611837     
8.805000305176     0.464994996786     0.000000627550     
8.909999847412     0.470295995474     0.000000643473     
9.015000343323     0.475430995226     0.000000658807     
9.119999885559     0.480731993914     0.000000673596     
9.225000381470     0.486032992601     0.000000689141     
9.329999923706     0.491167992353     0.000000705358     
9.435000419617     0.496468991041     0.000000720189     
9.539999961853     0.501604974270     0.000000735313     
9.645000457764     0.507071018219     0.000000750732     
9.750000000000     0.512206017971     0.000000764596     
9.854999542236     0.517507016659     0.000000778713     
9.960000038147     0.522808015347     0.000000794132     
10.064999580383     0.527944028378     0.000000809298     
10.170000076294     0.533245027065     0.000000822616     
10.274999618530     0.538546025753     0.000000836439     
10.380000114441     0.543847024441     0.000000850849     
10.484999656677     0.548982024193     0.000000865008     
10.590000152588     0.554449021816     0.000000878704     
10.694999694824     0.559584021568     0.000000893451     
10.800000190735     0.564719021320     0.000000907147     
10.904999732971     0.570020020008     0.000000919583     
11.010000228882     0.575321018696     0.000000932229     
11.114999771118     0.580622017384     0.000000946387     
11.220000267029     0.585923016071     0.000000959957     
11.324999809265     0.591058015823     0.000000972729     
11.430000305176     0.596359014511     0.000000986005     
11.534999847412     0.601660013199     0.000000998357     
11.640000343323     0.606961011887     0.000001010079     
11.744999885559     0.612097024918     0.000001022725     
11.859999656677     0.623857975006     0.000001060422     
11.965000152588     0.628993988037     0.000001070445     
12.069999694824     0.634294986725     0.000001080852     
12.175000190735     0.639429986477     0.000001091645     
12.279999732971     0.644730985165     0.000001103595     
12.385000228882     0.650197029114     0.000001114388     
12.489999771118     0.655332982540     0.000001124410     
12.595000267029     0.660633981228     0.000001135203     
12.699999809265     0.665934979916     0.000001145225     
12.805000305176     0.671235978603     0.000001154862     
12.909999847412     0.676536977291     0.000001164884     
13.015000343323     0.681671977043     0.000001175292     
13.119999885559     0.686972975731     0.000001184158     
13.225000381470     0.692107975483     0.000001193023     
13.329999923706     0.697574973106     0.000001202275     
13.435000419617     0.702709972858     0.000001210370     
13.539999961853     0.708010971546     0.000001219235     
13.645000457764     0.713145971298     0.000001229257     
13.750000000000     0.718613028526     0.000001236967     
13.854999542236     0.723914027214     0.000001243905     
13.960000038147     0.729049026966     0.000001251229     
14.064999580383     0.734350025654     0.000001258553     
14.170000076294     0.739485979080     0.000001266262     
14.274999618530     0.744952023029     0.000001272044     
14.380000114441     0.750253021717     0.000001278597     
14.484999656677     0.755554020405     0.000001283994     
14.590000152588     0.760689973831     0.000001288620     
14.694999694824     0.765990972519     0.000001294016     
14.800000190735     0.771291971207     0.000001300569     
14.904999732971     0.776426970959     0.000001305580     
15.010000228882     0.781728029251     0.000001310206     
15.114999771118     0.787029027939     0.000001315217     
15.220000267029     0.792164027691     0.000001319842     
15.324999809265     0.797465026379     0.000001323312     
15.430000305176     0.802766025066     0.000001328323     
15.534999847412     0.808067023754     0.000001332563     
15.640000343323     0.813368022442     0.000001336418     
15.744999885559     0.818669021130     0.000001339116     
15.850000381470     0.823804020882     0.000001342971     
15.954999923706     0.829105019569     0.000001346440     
16.059999465942     0.834406018257     0.000001349909     
16.165000915527     0.839707016945     0.000001353378     
16.270000457764     0.845008015633     0.000001356847     
16.375000000000     0.850144028664     0.000001358004     
16.479999542236     0.855444014072     0.000001360702     
16.584999084473     0.860745012760     0.000001364171     
16.690000534058     0.865881025791     0.000001366484     
16.795000076294     0.871347010136     0.000001368797     
16.899999618530     0.876648008823     0.000001372266     
17.004999160767     0.881618022919     0.000001374193     
17.110000610352     0.887085020542     0.000001375350     
17.215000152588     0.892386019230     0.000001377277     
17.319999694824     0.897521018982     0.000001380361     
17.424999237061     0.902822017670     0.000001381517     
17.530000686646     0.908123016357     0.000001383059     
17.635000228882     0.913258016109     0.000001384987     
17.739999771118     0.918559014797     0.000001385757     
17.844999313354     0.923860013485     0.000001385757     
17.950000762939     0.929161012173     0.000001387685     
18.055000305176     0.934462010860     0.000001388456     
18.159999847412     0.939763009548     0.000001388456     
18.264999389648     0.944898009300     0.000001388070     
18.370000839233     0.950199007988     0.000001388841     
18.475000381470     0.955500006676     0.000001387685     
18.579999923706     0.960801005363     0.000001387299     
18.684999465942     0.966102004051     0.000001387299     
18.790000915527     0.971403002739     0.000001386914     
18.895000457764     0.976539015770     0.000001384216     
19.000000000000     0.981840014458     0.000001382674     
19.104999542236     0.987141013145     0.000001381903     
19.209999084473     0.992442011833     0.000001380746     
19.315000534058     0.997741997242     0.000001379205     
19.420000076294     1.002877950668     0.000001378434     
19.524999618530     1.008178949356     0.000001377277     
19.629999160767     1.013479948044     0.000001374964     
19.735000610352     1.018615007401     0.000001373808     
19.840000152588     1.023916006088     0.000001373808     
19.944999694824     1.029217004776     0.000001373808     
20.049999237061     1.034518003464     0.000001372652     
20.155000686646     1.039819002151     0.000001373037     
20.260000228882     1.045120000839     0.000001373422     
20.364999771118     1.050254940987     0.000001373808     
20.469999313354     1.055556058884     0.000001375735     
20.575000762939     1.060857057571     0.000001378434     
20.680000305176     1.066158056259     0.000001379205     
20.784999847412     1.071292996407     0.000001381903     
20.889999389648     1.076593995094     0.000001385372     
20.995000839233     1.081894993782     0.000001388456     
21.100000381470     1.087195992470     0.000001393081     
21.204999923706     1.092496991158     0.000001398863     
21.309999465942     1.097633004189     0.000001405031     
21.415000915527     1.102934002876     0.000001410813     
21.520000457764     1.108235001564     0.000001417366     
21.625000000000     1.113536000252     0.000001426232     
21.729999542236     1.118836998940     0.000001435097     
21.834999084473     1.123972058296     0.000001444734     
21.940000534058     1.129273056984     0.000001456298     
22.045000076294     1.134574055672     0.000001467862     
22.149999618530     1.139875054359     0.000001479426     
22.254999160767     1.145009994507     0.000001493688     
22.360000610352     1.150310993195     0.000001508722     
22.465000152588     1.155611991882     0.000001524911     
22.569999694824     1.160912990570     0.000001542257     
22.674999237061     1.166213989258     0.000001560760     
22.780000686646     1.171514987946     0.000001580419     
22.885000228882     1.176650047302     0.000001601620     
22.989999771118     1.181951045990     0.000001625133     
23.094999313354     1.187252044678     0.000001650189     
23.200000762939     1.192553043365     0.000001675629     
23.305000305176     1.197689056396     0.000001700685     
23.409999847412     1.196859955788     0.000001580804     
23.514999389648     1.191725015640     0.000001435483     
23.620000839233     1.186424016953     0.000001314446     
23.725000381470     1.181123018265     0.000001212297     
23.829999923706     1.175987958908     0.000001122097     
23.934999465942     1.170686960220     0.000001042305     
24.040000915527     1.165385961533     0.000000972536     
24.145000457764     1.160084962845     0.000000911632     
24.250000000000     1.154783964157     0.000000856895     
24.354999542236     1.149482965469     0.000000807555     
24.459999084473     1.144348025322     0.000000763227     
24.565000534058     1.139047026634     0.000000722752     
24.670000076294     1.133746027946     0.000000686133     
24.774999618530     1.128610014915     0.000000653368     
24.879999160767     1.123144030571     0.000000624073     
24.985000610352     1.118008017540     0.000000595934     
25.090000152588     1.112707018852     0.000000570107     
25.194999694824     1.107406020164     0.000000546979     
25.299999237061     1.102270960808     0.000000525007     
25.405000686646     1.096969962120     0.000000504578     
25.510000228882     1.091668963432     0.000000486846     
25.614999771118     1.086367964745     0.000000470271     
25.719999313354     1.081233024597     0.000000452925     
25.825000762939     1.075932025909     0.000000437121     
25.930000305176     1.070631027222     0.000000423244     
26.034999847412     1.065330028534     0.000000410138     
26.139999389648     1.060029029846     0.000000397803     
26.245000839233     1.054893970490     0.000000386239     
26.350000381470     1.049592971802     0.000000375060     
26.454999923706     1.044291973114     0.000000363496     
26.559999465942     1.038990974426     0.000000353474     
26.665000915527     1.033854961395     0.000000344608     
26.770000457764     1.028553962708     0.000000335357     
26.879999160767     1.022258996964     0.000000323669     
26.985000610352     1.017124056816     0.000000315308     
27.090000152588     1.011823058128     0.000000307452     
27.194999694824     1.006522059441     0.000000299301     
27.299999237061     1.001220941544     0.000000291907     
27.405000686646     0.996086001396     0.000000285689     
27.510000228882     0.990785002708     0.000000279219     
27.614999771118     0.985318005085     0.000000271321     
27.719999313354     0.980183005333     0.000000264178     
27.825000762939     0.974882006645     0.000000259053     
27.930000305176     0.969747006893     0.000000252163     
28.034999847412     0.964446008205     0.000000246071     
28.139999389648     0.959145009518     0.000000241155     
28.245000839233     0.953844010830     0.000000235189     
28.350000381470     0.948707997799     0.000000228761     
28.454999923706     0.943408012390     0.000000223132     
28.559999465942     0.938107013702     0.000000218720     
28.665000915527     0.932806015015     0.000000212922     
28.770000457764     0.927670001984     0.000000207629     
28.875000000000     0.922369003296     0.000000202839     
28.979999542236     0.917068004608     0.000000197041     
29.084999084473     0.911767005920     0.000000191622     
29.190000534058     0.906466007233     0.000000187378     
29.295000076294     0.901165008545     0.000000183009     
29.399999618530     0.896030008793     0.000000177295     
29.504999160767     0.890729010105     0.000000172548     
29.610000610352     0.885428011417     0.000000167842     
29.715000152588     0.880293011665     0.000000162297     
29.819999694824     0.874992012978     0.000000157801     
29.924999237061     0.869691014290     0.000000153936     
30.030000686646     0.864390015602     0.000000149273     
30.135000228882     0.859089016914     0.000000143097     
30.239999771118     0.853954017162     0.000000137971     
30.344999313354     0.848653018475     0.000000133896     
30.450000762939     0.843352019787     0.000000128728     
30.555000305176     0.838051021099     0.000000123687     
30.659999847412     0.832750022411     0.000000118981     
30.764999389648     0.827614009380     0.000000113771     
30.870000839233     0.822313010693     0.000000107259     
30.975000381470     0.817012012005     0.000000102092     
31.079999923706     0.811877012253     0.000000097975     
31.184999465942     0.806410014629     0.000000091589     
31.290000915527     0.801275014877     0.000000085749     
31.395000457764     0.795974016190     0.000000080329     
31.500000000000     0.790839016438     0.000000074111     
31.604999542236     0.785538017750     0.000000067893     
31.709999084473     0.780237019062     0.000000062852     
31.815000534058     0.774936020374     0.000000057306     
31.920000076294     0.769635021687     0.000000049744     
32.025001525879     0.764334022999     0.000000043736     
32.130001068115     0.759033024311     0.000000037854     
32.235000610352     0.753898024559     0.000000031174     
32.340000152588     0.748597025871     0.000000024788     
32.444999694824     0.743296027184     0.000000018990     
32.549999237061     0.738160014153     0.000000012394     
32.619998931885     0.730042994022     0.000000002192     
32.724998474121     0.724907994270     -0.000000004585     
32.830001831055     0.719606995583     -0.000000010603     
32.935001373291     0.714471995831     -0.000000016355     
33.040000915527     0.709170997143     -0.000000022832     
33.145000457764     0.704034984112     -0.000000029195     
33.250000000000     0.698733985424     -0.000000034679     
33.354999542236     0.693598985672     -0.000000040253     
33.459999084473     0.688297986984     -0.000000045930     
33.564998626709     0.682996988297     -0.000000050503     
33.669998168945     0.677695989609     -0.000000054113     
33.775001525879     0.672560989857     -0.000000058330     
33.880001068115     0.667259991169     -0.000000061819     
33.985000610352     0.662124991417     -0.000000063571     
34.090000152588     0.656823992729     -0.000000065019     
34.194999694824     0.651522994041     -0.000000065819     
34.299999237061     0.646221995354     -0.000000065163     
34.404998779297     0.641085982323     -0.000000063540     
34.509998321533     0.635784983635     -0.000000061709     
34.615001678467     0.630318999290     -0.000000058785     
34.720001220703     0.625182986259     -0.000000054807     
34.825000762939     0.619883000851     -0.000000051045     
34.930000305176     0.614582002163     -0.000000047291     
35.034999847412     0.609281003475     -0.000000042828     
35.139999389648     0.603980004787     -0.000000038975     
35.244998931885     0.598679006100     -0.000000035881     
