
Cycle 1
Physical Cycle 1
Step 1

Time (s),          Potential (V),         Current (A)
0.104999996722     0.002485000063     -0.000000450915     
0.209999993443     0.007619999815     -0.000000420344     
0.314999997616     0.012920999900     -0.000000393595     
0.419999986887     0.018055999652     -0.000000366846     
0.449999988079     0.028161000460     -0.000000326877     
0.555000007153     0.033461999148     -0.000000307989     
0.660000026226     0.038763001561     -0.000000290257     
0.764999985695     0.044064000249     -0.000000272526     
0.795000016689     0.054168999195     -0.000000241701     
0.899999976158     0.059470001608     -0.000000227375     
1.004999995232     0.064770996571     -0.000000213763     
1.110000014305     0.069907002151     -0.000000199940     
1.215000033379     0.075208000839     -0.000000187841     
1.320000052452     0.080508999527     -0.000000175825     
1.424999952316     0.085643999279     -0.000000163515     
1.529999971390     0.090944997966     -0.000000151499     
1.634999990463     0.096245996654     -0.000000141500     
1.740000009537     0.101547002792     -0.000000131165     
1.845000028610     0.106848001480     -0.000000120788     
1.950000047684     0.112149000168     -0.000000111125     
2.055000066757     0.117283999920     -0.000000101630     
2.160000085831     0.122584998608     -0.000000091757     
2.265000104904     0.127885997295     -0.000000083312     
2.369999885559     0.133020997047     -0.000000075498     
2.474999904633     0.138321995735     -0.000000067221     
2.579999923706     0.143622994423     -0.000000058104     
2.684999942780     0.148923993111     -0.000000050332     
2.789999961853     0.154060006142     -0.000000042853     
2.894999980927     0.159360006452     -0.000000035039     
3.000000000000     0.164661005139     -0.000000027939     
3.105000019073     0.169962003827     -0.000000021217     
3.210000038147     0.175263002515     -0.000000013402     
3.315000057220     0.180399000645     -0.000000005588     
3.414999961853     0.186858996749     0.000000001805     
3.519999980927     0.192159995437     0.000000009071     
3.625000000000     0.197295993567     0.000000015593     
3.730000019073     0.202597007155     0.000000021630     
3.835000038147     0.207732006907     0.000000028619     
3.940000057220     0.213033005595     0.000000035593     
4.045000076294     0.218168005347     0.000000041645     
4.150000095367     0.223469004035     0.000000048099     
4.255000114441     0.228604003787     0.000000055167     
4.360000133514     0.233905002475     0.000000061436     
4.465000152588     0.239041000605     0.000000067905     
4.570000171661     0.244341999292     0.000000075068     
4.675000190735     0.249642997980     0.000000082030     
4.715000152588     0.259582012892     0.000000096294     
4.820000171661     0.264883011580     0.000000103310     
4.925000190735     0.270184010267     0.000000109990     
5.030000209808     0.275485008955     0.000000116712     
5.135000228882     0.280786007643     0.000000124569     
5.239999771118     0.285921007395     0.000000131627     
5.344999790192     0.291222006083     0.000000139441     
5.449999809265     0.296523004770     0.000000148054     
5.554999828339     0.301658004522     0.000000156121     
5.659999847412     0.306959003210     0.000000163641     
5.764999866486     0.312094986439     0.000000171960     
5.869999885559     0.317561000586     0.000000181245     
5.974999904633     0.322697013617     0.000000189941     
6.079999923706     0.327998012304     0.000000199310     
6.184999942780     0.333299010992     0.000000209309     
6.289999961853     0.338600009680     0.000000218006     
6.394999980927     0.343735009432     0.000000227249     
6.500000000000     0.349036008120     0.000000237710     
6.605000019073     0.354171007872     0.000000248634     
6.710000038147     0.359638005495     0.000000258255     
6.815000057220     0.364773005247     0.000000268548     
6.920000076294     0.370074003935     0.000000279513     
7.025000095367     0.375375002623     0.000000290058     
7.130000114441     0.380510002375     0.000000300940     
7.235000133514     0.385811001062     0.000000312788     
7.340000152588     0.391111999750     0.000000324215     
7.445000171661     0.396248012781     0.000000334802     
7.550000190735     0.401549011469     0.000000346020     
7.655000209808     0.406850010157     0.000000358666     
7.760000228882     0.412151008844     0.000000370387     
7.864999771118     0.417452007532     0.000000382025     
7.969999790192     0.422587007284     0.000000394587     
8.074999809265     0.427888005972     0.000000406393     
8.180000305176     0.433189004660     0.000000418156     
8.284999847412     0.438490003347     0.000000431643     
8.390000343323     0.443791002035     0.000000445003     
8.494999885559     0.448926001787     0.000000457103     
8.600000381470     0.454227000475     0.000000469917     
8.704999923706     0.459527999163     0.000000483655     
8.810000419617     0.464662998915     0.000000496469     
8.914999961853     0.469963997602     0.000000510039     
9.020000457764     0.475100010633     0.000000524197     
9.125000000000     0.480565994978     0.000000538020     
9.229999542236     0.485702008009     0.000000550834     
9.335000038147     0.491003006697     0.000000564866     
9.439999580383     0.496304005384     0.000000579991     
9.545000076294     0.501438975334     0.000000594065     
9.649999618530     0.506739974022     0.000000608224     
9.755000114441     0.512040972710     0.000000623096     
9.859999656677     0.517175972462     0.000000637423     
9.965000152588     0.522476971149     0.000000652337     
10.069999694824     0.527778029442     0.000000668470     
10.175000190735     0.533079028130     0.000000683931     
10.279999732971     0.538214027882     0.000000698342     
10.385000228882     0.543681025505     0.000000713845     
10.489999771118     0.548816025257     0.000000729852     
10.595000267029     0.554117023945     0.000000745396     
10.699999809265     0.559252977371     0.000000761782     
10.805000305176     0.564553976059     0.000000778671     
10.909999847412     0.569854974747     0.000000794594     
11.015000343323     0.575155973434     0.000000809887     
11.119999885559     0.580290973186     0.000000826944     
11.225000381470     0.585591971874     0.000000844253     
11.329999923706     0.590892970562     0.000000860680     
11.435000419617     0.596194028854     0.000000877107     
11.539999961853     0.601329028606     0.000000894333     
11.645000457764     0.606630027294     0.000000910928     
11.750000000000     0.611931025982     0.000000927607     
11.854999542236     0.617232024670     0.000000945589     
11.960000038147     0.622367024422     0.000000963486     
12.064999580383     0.627668023109     0.000000979830     
12.170000076294     0.632969021797     0.000000997349     
12.274999618530     0.638270020485     0.000001015163     
12.380000114441     0.643405973911     0.000001032766     
12.479999542236     0.650529026985     0.000001061579     
12.585000038147     0.655830025673     0.000001078154     
12.689999580383     0.660965025425     0.000001094729     
12.795000076294     0.666266024113     0.000001112846     
12.899999618530     0.671567022800     0.000001131349     
13.005000114441     0.676868021488     0.000001148695     
13.109999656677     0.682003021240     0.000001166812     
13.215000152588     0.687304019928     0.000001184543     
13.319999694824     0.692605018616     0.000001202275     
13.425000190735     0.697906017303     0.000001220006     
13.529999732971     0.703207015991     0.000001238509     
13.635000228882     0.708342015743     0.000001257011     
13.739999771118     0.713643014431     0.000001274357     
13.845000267029     0.718944013119     0.000001292474     
13.949999809265     0.724245011806     0.000001310206     
14.055000305176     0.729546010494     0.000001328323     
14.159999847412     0.734682023525     0.000001346054     
14.265000343323     0.739983022213     0.000001364557     
14.369999885559     0.745284020901     0.000001381903     
14.475000381470     0.750585019588     0.000001398863     
14.579999923706     0.755886018276     0.000001416980     
14.685000419617     0.761187016964     0.000001435097     
14.789999961853     0.766322016716     0.000001451672     
14.895000457764     0.771623015404     0.000001469019     
15.000000000000     0.776924014091     0.000001486750     
15.104999542236     0.782225012779     0.000001503711     
15.210000038147     0.787526011467     0.000001520671     
15.314999580383     0.792661011219     0.000001538403     
15.420000076294     0.797962009907     0.000001556134     
15.524999618530     0.803263008595     0.000001571553     
15.630000114441     0.808398008347     0.000001587357     
15.734999656677     0.813699007034     0.000001605089     
15.840000152588     0.819000005722     0.000001621664     
15.944999694824     0.824301004410     0.000001638239     
16.049999237061     0.829437017441     0.000001654814     
16.155000686646     0.834738016129     0.000001671004     
16.260000228882     0.840204000473     0.000001686422     
16.364999771118     0.845340013504     0.000001702998     
16.469999313354     0.850639998913     0.000001719187     
16.575000762939     0.855776011944     0.000001734991     
16.680000305176     0.861077010632     0.000001750410     
16.784999847412     0.866378009319     0.000001766600     
16.889999389648     0.871679008007     0.000001781633     
16.995000839233     0.876980006695     0.000001797052     
17.100000381470     0.882115006447     0.000001813627     
17.204999923706     0.887416005135     0.000001829046     
17.309999465942     0.892717003822     0.000001843308     
17.415000915527     0.898018002510     0.000001857956     
17.520000457764     0.903319001198     0.000001873760     
17.625000000000     0.908454000950     0.000001889179     
17.729999542236     0.913754999638     0.000001904212     
17.834999084473     0.919055998325     0.000001919631     
17.940000534058     0.924356997013     0.000001934278     
18.045000076294     0.929657995701     0.000001948155     
18.149999618530     0.934792995453     0.000001963574     
18.254999160767     0.940093994141     0.000001978993     
18.360000610352     0.945394992828     0.000001993640     
18.465000152588     0.950531005859     0.000002008674     
18.569999694824     0.955832004547     0.000002024092     
18.674999237061     0.961133003235     0.000002038740     
18.780000686646     0.966434001923     0.000002053774     
18.885000228882     0.971735000610     0.000002069578     
18.989999771118     0.976870000362     0.000002084996     
19.094999313354     0.982336997986     0.000002099259     
19.200000762939     0.987471997738     0.000002114292     
19.305000305176     0.992772996426     0.000002130482     
19.409999847412     0.998073995113     0.000002145129     
19.514999389648     1.003208994865     0.000002161319     
19.620000839233     1.008509993553     0.000002177509     
19.725000381470     1.013810992241     0.000002193313     
19.829999923706     1.019111990929     0.000002208346     
19.934999465942     1.024412989616     0.000002225307     
20.040000915527     1.029713988304     0.000002242653     
20.145000457764     1.034849047661     0.000002258457     
20.250000000000     1.040150046349     0.000002275418     
20.354999542236     1.045286059380     0.000002293149     
20.459999084473     1.050752043724     0.000002310881     
20.565000534058     1.055888056755     0.000002328227     
20.670000076294     1.061187982559     0.000002346344     
20.774999618530     1.066488981247     0.000002365617     
20.879999160767     1.071789979935     0.000002383349     
20.985000610352     1.076925992966     0.000002401466     
21.090000152588     1.082226991653     0.000002421510     
21.194999694824     1.087527990341     0.000002440783     
21.299999237061     1.092828989029     0.000002460442     
21.405000686646     1.098129987717     0.000002480872     
21.510000228882     1.103265047073     0.000002500916     
21.614999771118     1.108566045761     0.000002522117     
21.719999313354     1.113867044449     0.000002544474     
21.825000762939     1.119168043137     0.000002567217     
21.930000305176     1.124302983284     0.000002589574     
22.034999847412     1.129603981972     0.000002613088     
22.139999389648     1.134904980659     0.000002637758     
22.245000839233     1.140205979347     0.000002662813     
22.350000381470     1.145506978035     0.000002687868     
22.454999923706     1.150807976723     0.000002717164     
22.559999465942     1.155943036079     0.000002744918     
22.665000915527     1.161244034767     0.000002771900     
22.770000457764     1.166545033455     0.000002800425     
22.875000000000     1.171681046486     0.000002830877     
22.979999542236     1.176982045174     0.000002861714     
23.084999084473     1.182283043861     0.000002893323     
23.190000534058     1.187584042549     0.000002926088     
23.295000076294     1.192885041237     0.000002960009     
23.399999618530     1.197854042053     0.000002987762     
23.504999160767     1.196197986603     0.000002833961     
23.610000610352     1.191061973572     0.000002653947     
23.715000152588     1.185760974884     0.000002498989     
23.819999694824     1.180459976196     0.000002361762     
23.924999237061     1.175325036049     0.000002240340     
24.030000686646     1.169857978821     0.000002131253     
24.135000228882     1.164723038673     0.000002032958     
24.239999771118     1.159587979317     0.000001945457     
24.344999313354     1.154286980629     0.000001864509     
24.450000762939     1.148820042610     0.000001789728     
24.555000305176     1.143684983253     0.000001720729     
24.659999847412     1.138383984566     0.000001659054     
24.764999389648     1.133249044418     0.000001601620     
24.870000839233     1.127781987190     0.000001548425     
24.975000381470     1.122647047043     0.000001500241     
25.079999923706     1.117346048355     0.000001454371     
25.184999465942     1.112045049667     0.000001410427     
25.290000915527     1.106909036636     0.000001371495     
25.395000457764     1.101608037949     0.000001335261     
25.500000000000     1.096307039261     0.000001299413     
25.604999542236     1.091006040573     0.000001266648     
25.709999084473     1.085870981216     0.000001235425     
25.815000534058     1.080569982529     0.000001205358     
25.920000076294     1.075268983841     0.000001177605     
26.024999618530     1.069967985153     0.000001151778     
26.129999160767     1.064833045006     0.000001126723     
26.235000610352     1.059532046318     0.000001102824     
26.340000152588     1.054231047630     0.000001080081     
26.444999694824     1.048930048943     0.000001059266     
26.549999237061     1.043629050255     0.000001038065     
26.655000686646     1.038493990898     0.000001018021     
26.760000228882     1.033192992210     0.000000999519     
26.864999771118     1.027891993523     0.000000980631     
26.969999313354     1.022590994835     0.000000961357     
27.075000762939     1.017289996147     0.000000945553     
27.180000305176     1.011988997459     0.000000928978     
27.284999847412     1.006854057312     0.000000912403     
27.389999389648     1.001553058624     0.000000896984     
27.495000839233     0.996252000332     0.000000881951     
27.600000381470     0.991115987301     0.000000866532     
27.704999923706     0.985814988613     0.000000851884     
27.809999465942     0.980513989925     0.000000838778     
27.915000915527     0.975212991238     0.000000825287     
28.020000457764     0.969911992550     0.000000811410     
28.125000000000     0.964610993862     0.000000798304     
28.229999542236     0.959309995174     0.000000785584     
28.334999084473     0.954174995422     0.000000773249     
28.440000534058     0.949039995670     0.000000760528     
28.545000076294     0.943572998047     0.000000749735     
28.649999618530     0.938437998295     0.000000737786     
28.754999160767     0.933136999607     0.000000725065     
28.860000610352     0.927836000919     0.000000713887     
28.965000152588     0.922701001167     0.000000703479     
29.069999694824     0.917400002480     0.000000692301     
29.174999237061     0.912099003792     0.000000681122     
29.280000686646     0.906798005104     0.000000670329     
29.385000228882     0.901497006416     0.000000659150     
29.489999771118     0.896196007729     0.000000647972     
29.594999313354     0.890895009041     0.000000638335     
29.700000762939     0.885758996010     0.000000628698     
29.805000305176     0.880457997322     0.000000617134     
29.909999847412     0.875156998634     0.000000606727     
30.014999389648     0.870021998882     0.000000597090     
30.120000839233     0.864556014538     0.000000587453     
30.225000381470     0.859255015850     0.000000577046     
30.329999923706     0.854119002819     0.000000568180     
30.434999465942     0.848818004131     0.000000558158     
30.540000915527     0.843517005444     0.000000547365     
30.645000457764     0.838382005692     0.000000538113     
30.750000000000     0.833081007004     0.000000528862     
30.854999542236     0.827780008316     0.000000519225     
30.959999084473     0.822479009628     0.000000509203     
31.065000534058     0.817344009876     0.000000500723     
31.170000076294     0.812043011189     0.000000490315     
31.274999618530     0.806742012501     0.000000480679     
31.379999160767     0.801441013813     0.000000472198     
31.485000610352     0.796140015125     0.000000463333     
31.590000152588     0.791005015373     0.000000453310     
31.694999694824     0.785704016685     0.000000444059     
31.799999237061     0.780403017998     0.000000435579     
31.905000686646     0.775102019310     0.000000425942     
32.009998321533     0.769801020622     0.000000417076     
32.115001678467     0.764665007591     0.000000408982     
32.220001220703     0.759364008904     0.000000400116     
32.325000762939     0.754063010216     0.000000390479     
32.430000305176     0.748762011528     0.000000381613     
32.534999847412     0.743461012840     0.000000373518     
32.639999389648     0.738326013088     0.000000364653     
32.744998931885     0.733025014400     0.000000355787     
32.849998474121     0.727724015713     0.000000348078     
32.915000915527     0.719276010990     0.000000331315     
33.020000457764     0.713975012302     0.000000322493     
33.125000000000     0.708674013615     0.000000315896     
33.229999542236     0.703538000584     0.000000308460     
33.334999084473     0.698238015175     0.000000299974     
33.439998626709     0.692937016487     0.000000292873     
33.544998168945     0.687636017799     0.000000286109     
33.650001525879     0.682500004768     0.000000279597     
33.755001068115     0.677199006081     0.000000273463     
33.860000610352     0.671898007393     0.000000268044     
33.965000152588     0.666597008705     0.000000261994     
34.069999694824     0.661462008953     0.000000255566     
34.174999237061     0.656161010265     0.000000251070     
34.279998779297     0.650860011578     0.000000246281     
34.384998321533     0.645559012890     0.000000241113     
34.490001678467     0.640424013138     0.000000235441     
34.595001220703     0.635123014450     0.000000230652     
34.700000762939     0.629822015762     0.000000224350     
34.805000305176     0.624521017075     0.000000217880     
34.909999847412     0.619386017323     0.000000212712     
35.014999389648     0.613919019699     0.000000206410     
35.119998931885     0.608784019947     0.000000198344     
35.224998474121     0.603483021259     0.000000190529     
