
Cycle 1
Physical Cycle 1
Step 1

Time (s),          Potential (V),         Current (A)
0.104999996722     0.002641000086     -0.000000271266     
0.209999993443     0.007922000252     -0.000000244522     
0.314999997616     0.013203999959     -0.000000221598     
0.419999986887     0.018485000357     -0.000000198674     
0.449999988079     0.028552999720     -0.000000163489     
0.555000007153     0.033833999187     -0.000000146179     
0.660000026226     0.039115998894     -0.000000130792     
0.764999985695     0.044397000223     -0.000000116943     
0.795000016689     0.054464999586     -0.000000092682     
0.899999976158     0.059581000358     -0.000000081028     
1.004999995232     0.064862996340     -0.000000070679     
1.110000014305     0.070143997669     -0.000000061465     
1.215000033379     0.075590997934     -0.000000051957     
1.320000052452     0.080706998706     -0.000000043627     
1.424999952316     0.085988000035     -0.000000035971     
1.529999971390     0.091269999743     -0.000000027430     
1.634999990463     0.096386000514     -0.000000019605     
1.740000009537     0.101833000779     -0.000000012874     
1.845000028610     0.106949001551     -0.000000004964     
1.934999942780     0.113880999386     0.000000004890     
2.039999961853     0.119162000716     0.000000012890     
2.144999980927     0.124444000423     0.000000020189     
2.250000000000     0.129559993744     0.000000028848     
2.355000019073     0.134841993451     0.000000038161     
2.460000038147     0.139957994223     0.000000047128     
2.565000057220     0.145239993930     0.000000057161     
2.670000076294     0.150520995259     0.000000068603     
2.775000095367     0.155636996031     0.000000079810     
2.835000038147     0.164550006390     0.000000103578     
2.940000057220     0.169830992818     0.000000116662     
3.045000076294     0.175113007426     0.000000131177     
3.150000095367     0.180393993855     0.000000147206     
3.255000114441     0.185675993562     0.000000162982     
3.359999895096     0.190956994891     0.000000179432     
3.464999914169     0.196072995663     0.000000196933     
3.569999933243     0.201354995370     0.000000214056     
3.674999952316     0.206635996699     0.000000231263     
3.779999971390     0.211917996407     0.000000249606     
3.884999990463     0.217033997178     0.000000267486     
3.990000009537     0.222480997443     0.000000285030     
4.094999790192     0.227596998215     0.000000303793     
4.199999809265     0.232877999544     0.000000322136     
4.304999828339     0.238159999251     0.000000339848     
4.409999847412     0.243441000581     0.000000357854     
4.514999866486     0.248723000288     0.000000376197     
4.619999885559     0.254004001617     0.000000392983     
4.724999904633     0.259119987488     0.000000410401     
4.829999923706     0.264402002096     0.000000428323     
4.934999942780     0.269683003426     0.000000444815     
5.039999961853     0.274964988232     0.000000461138     
5.144999980927     0.280245989561     0.000000478261     
5.250000000000     0.285362988710     0.000000494290     
5.355000019073     0.290809005499     0.000000509940     
5.460000038147     0.295926004648     0.000000526179     
5.565000057220     0.301207005978     0.000000541746     
5.670000076294     0.306488007307     0.000000556975     
5.775000095367     0.311769992113     0.000000572457     
5.880000114441     0.316886007786     0.000000587813     
5.985000133514     0.322333008051     0.000000602622     
6.090000152588     0.327448993921     0.000000618104     
6.195000171661     0.332731008530     0.000000633292     
6.300000190735     0.338012009859     0.000000647385     
6.405000209808     0.343293011189     0.000000662447     
6.510000228882     0.348574995995     0.000000677887     
6.614999771118     0.353855997324     0.000000691728     
6.719999790192     0.358972996473     0.000000706158     
6.824999809265     0.364253997803     0.000000720967     
6.929999828339     0.369536012411     0.000000734514     
7.034999847412     0.374817013741     0.000000748355     
7.139999866486     0.379932999611     0.000000762575     
7.244999885559     0.385379999876     0.000000776122     
7.349999904633     0.390495985746     0.000000789459     
7.454999923706     0.395778000355     0.000000803216     
7.559999942780     0.401059001684     0.000000816720     
7.664999961853     0.406340986490     0.000000829594     
7.769999980927     0.411621987820     0.000000843435     
7.875000000000     0.416902989149     0.000000856856     
7.980000019073     0.422019988298     0.000000869519     
8.085000038147     0.427300989628     0.000000883319     
8.189999580383     0.432583004236     0.000000897202     
8.295000076294     0.437864005566     0.000000910833     
8.399999618530     0.443145990372     0.000000924422     
8.505000114441     0.448426991701     0.000000939273     
8.609999656677     0.453707993031     0.000000952609     
8.715000152588     0.458824992180     0.000000966661     
8.819999694824     0.464105993509     0.000000981932     
8.925000190735     0.469388008118     0.000000996447     
9.029999732971     0.474669009447     0.000001010709     
9.135000228882     0.479950994253     0.000001026528     
9.149999618530     0.491338998079     0.000001065182     
9.255000114441     0.496455013752     0.000001079030     
9.359999656677     0.501735985279     0.000001094417     
9.465000152588     0.507018029690     0.000001110959     
9.569999694824     0.512299001217     0.000001127115     
9.675000190735     0.517580986023     0.000001142503     
9.779999732971     0.522862017155     0.000001158659     
9.885000228882     0.528144001961     0.000001176354     
9.989999771118     0.533424973488     0.000001191357     
10.095000267029     0.538707017899     0.000001208283     
10.199999809265     0.543987989426     0.000001225594     
10.305000305176     0.549103975296     0.000001241750     
10.409999847412     0.554386019707     0.000001258292     
10.515000343323     0.559666991234     0.000001275602     
10.619999885559     0.564948976040     0.000001292528     
10.725000381470     0.570230007172     0.000001308685     
10.829999923706     0.575511991978     0.000001325995     
10.935000419617     0.580793023109     0.000001343306     
11.039999961853     0.586073994637     0.000001359463     
11.145000457764     0.591190993786     0.000001376389     
11.250000000000     0.596472024918     0.000001393699     
11.354999542236     0.601754009724     0.000001410241     
11.460000038147     0.607034981251     0.000001427551     
11.564999580383     0.612317025661     0.000001444477     
11.670000076294     0.617597997189     0.000001461018     
11.774999618530     0.622879028320     0.000001478329     
11.880000114441     0.628161013126     0.000001495255     
11.984999656677     0.633441984653     0.000001511412     
12.090000152588     0.638558983803     0.000001527953     
12.194999694824     0.644005000591     0.000001544494     
12.300000190735     0.649121999741     0.000001561035     
12.404999732971     0.654402971268     0.000001576423     
12.510000228882     0.659850001335     0.000001593349     
12.614999771118     0.664965987206     0.000001608351     
12.720000267029     0.670247018337     0.000001623739     
12.824999809265     0.675529003143     0.000001639126     
12.930000305176     0.680809974670     0.000001654128     
13.034999847412     0.686092019081     0.000001668361     
13.140000343323     0.691372990608     0.000001682979     
13.244999885559     0.696654975414     0.000001696828     
13.350000381470     0.701936006546     0.000001710292     
13.454999923706     0.707051992416     0.000001723756     
13.560000419617     0.712333977222     0.000001737989     
13.664999961853     0.717615008354     0.000001750299     
13.770000457764     0.722896993160     0.000001763762     
13.875000000000     0.728178024292     0.000001777226     
13.979999542236     0.733460009098     0.000001789921     
14.085000038147     0.738740980625     0.000001803000     
14.189999580383     0.744022011757     0.000001816848     
14.295000076294     0.749303996563     0.000001829928     
14.399999618530     0.754419982433     0.000001843007     
14.505000114441     0.759867012501     0.000001857240     
14.609999656677     0.764982998371     0.000001870704     
14.715000152588     0.770430028439     0.000001884168     
14.819999694824     0.775546014309     0.000001899170     
14.925000190735     0.780826985836     0.000001913788     
15.029999732971     0.786108970642     0.000001928406     
15.135000228882     0.791390001774     0.000001943793     
15.239999771118     0.796671986580     0.000001959565     
15.345000267029     0.801953017712     0.000001974568     
15.449999809265     0.807235002518     0.000001990724     
15.555000305176     0.812515974045     0.000002007265     
15.659999847412     0.817797005177     0.000002023807     
15.765000343323     0.822914004326     0.000002040733     
15.869999885559     0.828194975853     0.000002059582     
15.975000381470     0.833311975002     0.000002076508     
16.079999923706     0.838757991791     0.000002094588     
16.184999465942     0.844039976597     0.000002113053     
16.290000915527     0.849321007729     0.000002131517     
16.395000457764     0.854601979256     0.000002149982     
16.500000000000     0.859884023666     0.000002169986     
16.604999542236     0.865164995193     0.000002188835     
16.709999084473     0.870281994343     0.000002208454     
16.815000534058     0.875563025475     0.000002228072     
16.920000076294     0.880845010281     0.000002248460     
17.024999618530     0.886125981808     0.000002267310     
17.129999160767     0.891408026218     0.000002287313     
17.235000610352     0.896688997746     0.000002307701     
17.340000152588     0.901970028877     0.000002327320     
17.444999694824     0.907252013683     0.000002347708     
17.549999237061     0.912367999554     0.000002368866     
17.655000686646     0.917649984360     0.000002388484     
17.760000228882     0.922931015491     0.000002408872     
17.864999771118     0.928213000298     0.000002429645     
17.969999313354     0.933493971825     0.000002449649     
18.075000762939     0.938775002956     0.000002470037     
18.180000305176     0.944056987762     0.000002491579     
18.284999847412     0.949338018894     0.000002512352     
18.389999389648     0.954620003700     0.000002533124     
18.495000839233     0.959900975227     0.000002555051     
18.600000381470     0.965183019638     0.000002576593     
18.704999923706     0.970299005508     0.000002597751     
18.809999465942     0.975579977036     0.000002619678     
18.915000915527     0.980862021446     0.000002641604     
19.020000457764     0.986142992973     0.000002663916     
19.125000000000     0.991424977779     0.000002686227     
19.229999542236     0.996706008911     0.000002710078     
19.334999084473     1.001988053322     0.000002732774     
19.440000534058     1.007269024849     0.000002757009     
19.545000076294     1.012549996376     0.000002781628     
19.649999618530     1.017667055130     0.000002805479     
19.754999160767     1.022948026657     0.000002830483     
19.860000610352     1.028229951859     0.000002857410     
19.965000152588     1.033511042595     0.000002883953     
20.069999694824     1.038792967796     0.000002910881     
20.174999237061     1.044074058533     0.000002940117     
20.280000686646     1.049190044403     0.000002969353     
20.385000228882     1.054471969604     0.000002998973     
20.489999771118     1.059918045998     0.000003030132     
20.594999313354     1.065034985542     0.000003062061     
20.700000762939     1.070315957069     0.000003094759     
20.805000305176     1.075598001480     0.000003129380     
20.909999847412     1.080878973007     0.000003165540     
21.014999389648     1.086159944534     0.000003201700     
21.120000839233     1.091441988945     0.000003239783     
21.225000381470     1.096557974815     0.000003279790     
21.329999923706     1.101840019226     0.000003319412     
21.434999465942     1.107120990753     0.000003361343     
21.540000915527     1.112403035164     0.000003405581     
21.645000457764     1.117684006691     0.000003450204     
21.750000000000     1.122964978218     0.000003496750     
21.854999542236     1.128247022629     0.000003545220     
21.959999084473     1.133527994156     0.000003594844     
22.065000534058     1.138810038567     0.000003645622     
22.170000076294     1.144091010094     0.000003697938     
22.274999618530     1.149373054504     0.000003751794     
22.379999160767     1.154489040375     0.000003807188     
22.485000610352     1.159770965576     0.000003864505     
22.590000152588     1.165052056313     0.000003923362     
22.694999694824     1.170333027840     0.000003982218     
22.799999237061     1.175614953041     0.000004044151     
22.905000686646     1.180896043777     0.000004107624     
23.010000228882     1.186012983322     0.000004170711     
23.114999771118     1.191293954849     0.000004236107     
23.219999313354     1.196575999260     0.000004304196     
23.325000762939     1.197731018066     0.000004228029     
23.430000305176     1.192613959312     0.000003982602     
23.534999847412     1.187332987785     0.000003759872     
23.639999389648     1.182052016258     0.000003554068     
23.745000839233     1.176769971848     0.000003362112     
23.850000381470     1.171489000320     0.000003183620     
23.954999923706     1.166371941566     0.000003015514     
24.059999465942     1.161090970039     0.000002858180     
24.165000915527     1.155809044838     0.000002710462     
24.270000457764     1.150527954102     0.000002571208     
24.375000000000     1.145246982574     0.000002438878     
24.479999542236     1.140130043030     0.000002315395     
24.584999084473     1.134683966637     0.000002198837     
24.690000534058     1.129567027092     0.000002087664     
24.795000076294     1.124286055565     0.000001983031     
24.899999618530     1.119004011154     0.000001884552     
25.004999160767     1.113723039627     0.000001790690     
25.110000610352     1.108441948891     0.000001702213     
25.215000152588     1.103160023689     0.000001619122     
25.319999694824     1.097879052162     0.000001539878     
25.424999237061     1.092761993408     0.000001465250     
25.530000686646     1.087481021881     0.000001395238     
25.635000228882     1.082198977470     0.000001328688     
25.739999771118     1.076918005943     0.000001265600     
25.844999313354     1.071637034416     0.000001207514     
25.950000762939     1.066519975662     0.000001151735     
26.055000305176     1.061074018478     0.000001099034     
26.159999847412     1.055791974068     0.000001050564     
26.264999389648     1.050675988197     0.000001004787     
26.370000839233     1.045393943787     0.000000960548     
26.475000381470     1.040112972260     0.000000920157     
26.579999923706     1.034832000732     0.000000882843     
26.684999465942     1.029549956322     0.000000845914     
26.790000915527     1.024268984795     0.000000812831     
26.895000457764     1.018987059593     0.000000782441     
27.000000000000     1.013705968857     0.000000752821     
27.104999542236     1.008589029312     0.000000725124     
27.209999084473     1.003308057785     0.000000699735     
27.315000534058     0.998027026653     0.000000675500     
27.420000076294     0.992744982243     0.000000652419     
27.524999618530     0.987464010715     0.000000631646     
27.629999160767     0.982182025909     0.000000611258     
27.735000610352     0.976900994778     0.000000592024     
27.840000152588     0.971619009972     0.000000575098     
27.944999694824     0.966337978840     0.000000558557     
28.049999237061     0.961220979691     0.000000542016     
28.155000686646     0.955940008163     0.000000527782     
28.260000228882     0.950658977032     0.000000513549     
28.364999771118     0.945376992226     0.000000499701     
28.469999313354     0.940096020699     0.000000487006     
28.575000762939     0.934813976288     0.000000475466     
28.680000305176     0.929533004761     0.000000463156     
28.784999847412     0.924251019955     0.000000452000     
28.889999389648     0.918969988823     0.000000442383     
28.995000839233     0.913854002953     0.000000431612     
29.100000381470     0.908572018147     0.000000421610     
29.204999923706     0.903290987015     0.000000412763     
29.309999465942     0.898009002209     0.000000403530     
29.415000915527     0.892727971077     0.000000394298     
29.520000457764     0.887445986271     0.000000386989     
29.625000000000     0.882330000401     0.000000378526     
29.729999542236     0.876883983612     0.000000370448     
29.834999084473     0.871766984463     0.000000363139     
29.940000534058     0.866486012936     0.000000355830     
30.055000305176     0.855098009109     0.000000340142     
30.159999847412     0.849816024303     0.000000333453     
30.264999389648     0.844699978828     0.000000327521     
30.370000839233     0.839417994022     0.000000321084     
30.475000381470     0.834137022495     0.000000314185     
30.579999923706     0.828854978085     0.000000308505     
30.684999465942     0.823574006557     0.000000302321     
30.790000915527     0.818292975426     0.000000295842     
30.895000457764     0.813010990620     0.000000290289     
31.000000000000     0.807895004749     0.000000284819     
31.104999542236     0.802613019943     0.000000278593     
31.209999084473     0.797331988811     0.000000272955     
31.315000534058     0.792050004005     0.000000267654     
31.420000076294     0.786768972874     0.000000261975     
31.524999618530     0.781488001347     0.000000256337     
31.629999160767     0.776206016541     0.000000251668     
31.735000610352     0.770924985409     0.000000245904     
31.840000152588     0.765643000603     0.000000240308     
31.944999694824     0.760362029076     0.000000235639     
32.049999237061     0.755244970322     0.000000230296     
32.154998779297     0.749963998795     0.000000224532     
32.259998321533     0.744683027267     0.000000220241     
32.365001678467     0.739400982857     0.000000214814     
32.470001220703     0.734120011330     0.000000209386     
32.575000762939     0.728838026524     0.000000204632     
32.680000305176     0.723721981049     0.000000199542     
32.784999847412     0.718439996243     0.000000194241     
32.889999389648     0.713159024715     0.000000189277     
32.994998931885     0.707877993584     0.000000184523     
33.099998474121     0.702596008778     0.000000178759     
33.205001831055     0.697314977646     0.000000173879     
33.310001373291     0.692032992840     0.000000169335     
33.415000915527     0.686752021313     0.000000163782     
33.520000457764     0.681469976902     0.000000158775     
33.625000000000     0.676189005375     0.000000154063     
33.729999542236     0.670907974243     0.000000148762     
33.834999084473     0.665625989437     0.000000143293     
33.939998626709     0.660345017910     0.000000138834     
34.044998168945     0.655062973499     0.000000133491     
34.150001525879     0.649946987629     0.000000128148     
34.255001068115     0.644665002823     0.000000123436     
34.360000610352     0.639383971691     0.000000118303     
34.465000152588     0.634103000164     0.000000112834     
34.569999694824     0.628821015358     0.000000108080     
34.674999237061     0.623539984226     0.000000103242     
34.779998779297     0.618422985077     0.000000097141     
34.884998321533     0.612977027893     0.000000092093     
34.990001678467     0.607860028744     0.000000087381     
35.095001220703     0.602578997612     0.000000081281     
35.200000762939     0.597297012806     0.000000076190     
