
Cycle 1
Physical Cycle 1
Step 1

Time (s),          Potential (V),         Current (A)
0.104999996722     0.001818999997     -0.000002500620     
0.209999993443     0.007110000122     -0.000002351955     
0.314999997616     0.012400999665     -0.000002214726     
0.419999986887     0.017526999116     -0.000002088932     
0.449999988079     0.027778999880     -0.000001947535     
0.555000007153     0.033070001751     -0.000001844265     
0.660000026226     0.038361001760     -0.000001746754     
0.764999985695     0.043653000146     -0.000001655769     
0.870000004768     0.048778001219     -0.000001571695     
0.975000023842     0.054069999605     -0.000001491459     
1.080000042915     0.059360999614     -0.000001415447     
1.184999942780     0.064652003348     -0.000001343273     
1.289999961853     0.069778002799     -0.000001274555     
1.394999980927     0.075069002807     -0.000001209291     
1.500000000000     0.080360002816     -0.000001148251     
1.605000019073     0.085652001202     -0.000001090282     
1.710000038147     0.090943001211     -0.000001033464     
1.815000057220     0.096069000661     -0.000000979334     
1.919999957085     0.101525001228     -0.000000928275     
2.025000095367     0.106651000679     -0.000000879136     
2.130000114441     0.111942000687     -0.000000833067     
2.234999895096     0.117233999074     -0.000000790070     
2.339999914169     0.122524999082     -0.000000749377     
2.444999933243     0.127651005983     -0.000000707147     
2.549999952316     0.132942005992     -0.000000668373     
2.654999971390     0.138233006001     -0.000000632287     
2.759999990463     0.143524006009     -0.000000596968     
2.865000009537     0.148815006018     -0.000000563184     
2.970000028610     0.153941005468     -0.000000530936     
3.075000047684     0.159233003855     -0.000000499457     
3.180000066757     0.164524003863     -0.000000469128     
3.285000085831     0.169815003872     -0.000000441103     
3.390000104904     0.175106003881     -0.000000414998     
3.494999885559     0.180397003889     -0.000000389277     
3.599999904633     0.185689002275     -0.000000363939     
3.704999923706     0.190980002284     -0.000000340137     
3.809999942780     0.196106001735     -0.000000317871     
3.914999961853     0.201397001743     -0.000000297908     
3.950000047684     0.211318001151     -0.000000267789     
4.054999828339     0.216609001160     -0.000000247897     
4.159999847412     0.221900001168     -0.000000229767     
4.264999866486     0.227026000619     -0.000000211973     
4.369999885559     0.232317000628     -0.000000195522     
4.474999904633     0.237608999014     -0.000000180289     
4.579999923706     0.242899999022     -0.000000165936     
4.684999942780     0.248025998473     -0.000000150618     
4.789999961853     0.253316998482     -0.000000135090     
4.894999980927     0.258608013391     -0.000000121493     
5.000000000000     0.263898998499     -0.000000108316     
5.105000019073     0.269190996885     -0.000000096145     
5.210000038147     0.274316012859     -0.000000084185     
5.315000057220     0.279608011246     -0.000000071679     
5.420000076294     0.284898996353     -0.000000057746     
5.525000095367     0.290190011263     -0.000000045576     
5.630000114441     0.295316010714     -0.000000034329     
5.735000133514     0.300772994757     -0.000000021990     
5.840000152588     0.305898010731     -0.000000009442     
5.945000171661     0.311190009117     0.000000003651     
6.050000190735     0.316480994225     0.000000017962     
6.159999847412     0.322268009186     0.000000031429     
6.264999866486     0.327394008636     0.000000046680     
6.369999885559     0.332520008087     0.000000062289     
6.474999904633     0.337810993195     0.000000078463     
6.559999942780     0.345416992903     0.000000110540     
6.664999961853     0.350708007813     0.000000129677     
6.769999980927     0.356000006199     0.000000149821     
6.875000000000     0.361290991306     0.000000171224     
6.980000019073     0.366582006216     0.000000193844     
7.085000038147     0.371872991323     0.000000217219     
7.190000057220     0.376998990774     0.000000242063     
7.295000076294     0.382290005684     0.000000268838     
7.400000095367     0.387582004070     0.000000293640     
7.505000114441     0.392706990242     0.000000318401     
7.610000133514     0.397998988628     0.000000344294     
7.715000152588     0.403290003538     0.000000371740     
7.820000171661     0.408580988646     0.000000397592     
7.925000190735     0.413706988096     0.000000424660     
8.029999732971     0.418998003006     0.000000451225     
8.135000228882     0.424288988113     0.000000476866     
8.239999771118     0.429580986500     0.000000502130     
8.345000267029     0.434706002474     0.000000529577     
8.449999809265     0.439998000860     0.000000556225     
8.555000305176     0.445288985968     0.000000582035     
8.659999847412     0.450580000877     0.000000607592     
8.765000343323     0.455706000328     0.000000632940     
8.869999885559     0.460996985435     0.000000657533     
8.975000381470     0.466288000345     0.000000682964     
9.079999923706     0.471413999796     0.000000709361     
9.185000419617     0.476705014706     0.000000734332     
9.289999961853     0.481997013092     0.000000758001     
9.395000457764     0.487287998199     0.000000782132     
9.500000000000     0.492579013109     0.000000806598     
9.604999542236     0.497705012560     0.000000830393     
9.710000038147     0.502996027470     0.000000855615     
9.814999580383     0.508287012577     0.000000880963     
9.920000076294     0.513579010963     0.000000904506     
10.024999618530     0.518869996071     0.000000927546     
10.130000114441     0.523995995522     0.000000952306     
10.234999656677     0.529286980629     0.000000977738     
10.340000152588     0.534578025341     0.000001002120     
10.444999694824     0.539869010448     0.000001027133     
10.534999847412     0.547309994698     0.000001076461     
10.640000343323     0.552600979805     0.000001100647     
10.744999885559     0.557892978191     0.000001124833     
10.850000381470     0.563184022903     0.000001149786     
10.954999923706     0.568310022354     0.000001175124     
11.060000419617     0.573765993118     0.000001199694     
11.164999961853     0.578891992569     0.000001223880     
11.270000457764     0.584182977676     0.000001249217     
11.375000000000     0.589308977127     0.000001275706     
11.479999542236     0.594600021839     0.000001302196     
11.585000038147     0.600057005882     0.000001328301     
11.689999580383     0.605183005333     0.000001354790     
11.795000076294     0.610473990440     0.000001379744     
11.899999618530     0.615764975548     0.000001407001     
12.005000114441     0.621056020260     0.000001435410     
12.109999656677     0.626182019711     0.000001463434     
12.215000152588     0.631639003754     0.000001490691     
12.319999694824     0.636929988861     0.000001518332     
12.425000190735     0.642055988312     0.000001546357     
12.529999732971     0.647346973419     0.000001573998     
12.635000228882     0.652638018131     0.000001603175     
12.739999771118     0.657930016518     0.000001634271     
12.845000267029     0.663221001625     0.000001663063     
12.949999809265     0.668511986732     0.000001691856     
13.055000305176     0.673802971840     0.000001722184     
13.159999847412     0.678928971291     0.000001752897     
13.265000343323     0.684386014938     0.000001783609     
13.369999885559     0.689512014389     0.000001814705     
13.475000381470     0.694802999496     0.000001846185     
13.579999923706     0.700093984604     0.000001876513     
13.685000419617     0.705385029316     0.000001906841     
13.789999961853     0.710511028767     0.000001939089     
13.895000457764     0.715802013874     0.000001972105     
14.000000000000     0.721094012260     0.000002004736     
14.104999542236     0.726384997368     0.000002036984     
14.210000038147     0.731675982475     0.000002069232     
14.314999580383     0.736967027187     0.000002100328     
14.420000076294     0.742258012295     0.000002133343     
14.524999618530     0.747384011745     0.000002167127     
14.630000114441     0.752674996853     0.000002199758     
14.734999656677     0.757966995239     0.000002231622     
14.840000152588     0.763257980347     0.000002263486     
14.944999694824     0.768549025059     0.000002295350     
15.050000190735     0.773675024509     0.000002326446     
15.154999732971     0.778966009617     0.000002358694     
15.260000228882     0.784256994724     0.000002392477     
15.364999771118     0.789548993111     0.000002422806     
15.470000267029     0.794839978218     0.000002451982     
15.574999809265     0.800131022930     0.000002481543     
15.680000305176     0.805257022381     0.000002512255     
15.784999847412     0.810548007488     0.000002542199     
15.890000343323     0.815838992596     0.000002571759     
15.994999885559     0.821130990982     0.000002600552     
16.100000381470     0.826421976089     0.000002628193     
16.204999923706     0.831713020802     0.000002655450     
16.309999465942     0.836839020252     0.000002683475     
16.415000915527     0.842130005360     0.000002712268     
16.520000457764     0.847420990467     0.000002740292     
16.625000000000     0.852712988853     0.000002767550     
16.729999542236     0.858003973961     0.000002794039     
16.834999084473     0.863295018673     0.000002820144     
16.940000534058     0.868421018124     0.000002848169     
17.045000076294     0.873876988888     0.000002876578     
17.149999618530     0.879002988338     0.000002903835     
17.254999160767     0.884293973446     0.000002929556     
17.360000610352     0.889585971832     0.000002956813     
17.465000152588     0.894877016544     0.000002983302     
17.569999694824     0.900003015995     0.000003009408     
17.674999237061     0.905294001102     0.000003037049     
17.780000686646     0.910584986210     0.000003065841     
17.885000228882     0.915875971317     0.000003092331     
17.989999771118     0.921168029308     0.000003116516     
18.094999313354     0.926459014416     0.000003143006     
18.200000762939     0.931585013866     0.000003170647     
18.305000305176     0.937040984631     0.000003198288     
18.409999847412     0.942166984081     0.000003226312     
18.514999389648     0.947458028793     0.000003253569     
18.620000839233     0.952750027180     0.000003278907     
18.725000381470     0.957875013351     0.000003304628     
18.829999923706     0.963167011738     0.000003333037     
18.934999465942     0.968457996845     0.000003361446     
19.040000915527     0.973748981953     0.000003389087     
19.145000457764     0.979040026665     0.000003416728     
19.250000000000     0.984332025051     0.000003443601     
19.354999542236     0.989623010159     0.000003470474     
19.459999084473     0.994913995266     0.000003498499     
19.565000534058     1.000040054321     0.000003528443     
19.670000076294     1.005331039429     0.000003557620     
19.774999618530     1.010622024536     0.000003584877     
19.879999160767     1.015913009644     0.000003613670     
19.985000610352     1.021204948425     0.000003642462     
20.090000152588     1.026496052742     0.000003670871     
20.194999694824     1.031787037849     0.000003701583     
20.299999237061     1.036913037300     0.000003734215     
20.405000686646     1.042204022408     0.000003765311     
20.510000228882     1.047495007515     0.000003794871     
20.614999771118     1.052786946297     0.000003826735     
20.719999313354     1.057911992073     0.000003860902     
20.825000762939     1.063204050064     0.000003895070     
20.930000305176     1.068495035172     0.000003930389     
21.034999847412     1.073786020279     0.000003966859     
21.139999389648     1.079077005386     0.000004003330     
21.245000839233     1.084368944168     0.000004040952     
21.350000381470     1.089660048485     0.000004081646     
21.454999923706     1.094786047935     0.000004123491     
21.559999465942     1.100077033043     0.000004167640     
21.665000915527     1.105368018150     0.000004214476     
21.770000457764     1.110659003258     0.000004261312     
21.875000000000     1.115950942039     0.000004310836     
21.979999542236     1.121242046356     0.000004362278     
22.084999084473     1.126368045807     0.000004419864     
22.190000534058     1.131659030914     0.000004478601     
22.295000076294     1.136950016022     0.000004539257     
22.399999618530     1.142076015472     0.000004603369     
22.504999160767     1.147531986237     0.000004671703     
22.610000610352     1.152824044228     0.000004742725     
22.715000152588     1.157950043678     0.000004818354     
22.819999694824     1.163241028786     0.000004900125     
22.924999237061     1.168532013893     0.000004984967     
23.030000686646     1.173822999001     0.000005070962     
23.135000228882     1.179113984108     0.000005162714     
23.239999771118     1.184239983559     0.000005261377     
23.344999313354     1.189530968666     0.000005366182     
23.450000762939     1.194823026657     0.000005475594     
23.555000305176     1.197468042374     0.000005407644     
23.659999847412     1.192839026451     0.000004960014     
23.764999389648     1.187546968460     0.000004562291     
23.870000839233     1.182255983353     0.000004213708     
23.975000381470     1.176964998245     0.000003905051     
24.079999923706     1.171838998795     0.000003630177     
24.184999465942     1.166548013687     0.000003382177     
24.290000915527     1.161422014236     0.000003158746     
24.395000457764     1.156131029129     0.000002955661     
24.500000000000     1.150838971138     0.000002773308     
24.604999542236     1.145547986031     0.000002609382     
24.709999084473     1.140257000923     0.000002460428     
24.815000534058     1.135131001472     0.000002323759     
24.920000076294     1.129840016365     0.000002198991     
25.024999618530     1.124549031258     0.000002084972     
25.129999160767     1.119258046150     0.000001980167     
25.235000610352     1.113965988159     0.000001885727     
25.340000152588     1.108675003052     0.000001800500     
25.444999694824     1.103384017944     0.000001721033     
25.549999237061     1.098258018494     0.000001646172     
25.655000686646     1.092967033386     0.000001577453     
25.760000228882     1.087676048279     0.000001515261     
25.864999771118     1.082383990288     0.000001456140     
25.969999313354     1.077093005180     0.000001403930     
26.075000762939     1.071967005730     0.000001355174     
26.180000305176     1.066676020622     0.000001308338     
26.284999847412     1.061385035515     0.000001263038     
26.389999389648     1.056094050407     0.000001222728     
26.495000839233     1.050801992416     0.000001185489     
26.600000381470     1.045676946640     0.000001150554     
26.704999923706     1.040385007858     0.000001117539     
26.809999465942     1.035094022751     0.000001086443     
26.915000915527     1.029803037643     0.000001055347     
27.020000457764     1.024512052536     0.000001026554     
27.125000000000     1.019386053085     0.000001000833     
27.229999542236     1.014094948769     0.000000976647     
27.334999084473     1.008638024330     0.000000953229     
27.440000534058     1.003512024879     0.000000929811     
27.545000076294     0.998220980167     0.000000906777     
27.649999618530     0.992929995060     0.000000884894     
27.754999160767     0.987803995609     0.000000864163     
27.860000610352     0.982347011566     0.000000846888     
27.965000152588     0.977056026459     0.000000828461     
28.069999694824     0.971930027008     0.000000810033     
28.174999237061     0.966638982296     0.000000791990     
28.280000686646     0.961347997189     0.000000773946     
28.385000228882     0.956221997738     0.000000757439     
28.489999771118     0.950765013695     0.000000742466     
28.594999313354     0.945640027523     0.000000727878     
28.700000762939     0.940182983875     0.000000712906     
28.805000305176     0.935056984425     0.000000695247     
28.909999847412     0.929765999317     0.000000680658     
29.014999389648     0.924475014210     0.000000666454     
29.120000839233     0.919183015823     0.000000653017     
29.225000381470     0.914058029652     0.000000639581     
29.329999923706     0.908765971661     0.000000626144     
29.434999465942     0.903474986553     0.000000611556     
29.540000915527     0.898184001446     0.000000596584     
29.645000457764     0.892893016338     0.000000583531     
29.750000000000     0.887601017952     0.000000570862     
29.854999542236     0.882475972176     0.000000557810     
29.959999084473     0.877183973789     0.000000545141     
30.065000534058     0.871892988682     0.000000531320     
30.170000076294     0.866602003574     0.000000517500     
30.274999618530     0.861311018467     0.000000503679     
30.379999160767     0.856019973755     0.000000491778     
30.485000610352     0.850727975368     0.000000479110     
30.590000152588     0.845601975918     0.000000464905     
30.694999694824     0.840310990810     0.000000451853     
30.799999237061     0.835020005703     0.000000438032     
30.905000686646     0.829729020596     0.000000424212     
31.010000228882     0.824437975883     0.000000411159     
31.114999771118     0.819145977497     0.000000400026     
31.219999313354     0.814020991325     0.000000387357     
31.325000762939     0.808728992939     0.000000373537     
31.430000305176     0.803438007832     0.000000360100     
31.534999847412     0.798147022724     0.000000347431     
31.639999389648     0.792855978012     0.000000335914     
31.655000686646     0.781943023205     0.000000301782     
31.760000228882     0.776651024818     0.000000291332     
31.864999771118     0.771525025368     0.000000280043     
31.969999313354     0.766233980656     0.000000268125     
32.075000762939     0.760778009892     0.000000255870     
32.180000305176     0.755652010441     0.000000245798     
32.284999847412     0.750361025333     0.000000237279     
32.389999389648     0.745069026947     0.000000226074     
32.494998931885     0.739777982235     0.000000213358     
32.599998474121     0.734651982784     0.000000203034     
32.705001831055     0.729360997677     0.000000193508     
32.810001373291     0.724070012569     0.000000184359     
32.915000915527     0.718779027462     0.000000176218     
33.020000457764     0.713653028011     0.000000169839     
33.125000000000     0.708361983299     0.000000163628     
33.229999542236     0.703069984913     0.000000159683     
33.334999084473     0.697778999805     0.000000159725     
33.439998626709     0.692488014698     0.000000164551     
33.544998168945     0.687197029591     0.000000172735     
33.650001525879     0.681904971600     0.000000185450     
33.755001068115     0.676613986492     0.000000203076     
33.860000610352     0.671487987041     0.000000225193     
33.965000152588     0.666032016277     0.000000251254     
34.069999694824     0.660740971565     0.000000284911     
34.174999237061     0.655448973179     0.000000318443     
34.279998779297     0.650157988071     0.000000351386     
34.384998321533     0.644867002964     0.000000382190     
34.490001678467     0.639741003513     0.000000408503     
34.595001220703     0.634284973145     0.000000428563     
34.700000762939     0.629158973694     0.000000444426     
34.805000305176     0.623866975307     0.000000455002     
34.909999847412     0.618575990200     0.000000458233     
35.014999389648     0.613285005093     0.000000455505     
35.119998931885     0.607994019985     0.000000450428     
35.224998474121     0.602702975273     0.000000442874     
