
Cycle 1
Physical Cycle 1
Step 1

Time (s),          Potential (V),         Current (A)
0.104999996722     0.002318999963     -0.000000454736     
0.209999993443     0.007619999815     -0.000000420344     
0.314999997616     0.012755000032     -0.000000389774     
0.419999986887     0.018055999652     -0.000000363024     
0.449999988079     0.028161000460     -0.000000310302     
0.555000007153     0.033461999148     -0.000000286017     
0.660000026226     0.038598001003     -0.000000264817     
0.764999985695     0.043898999691     -0.000000244387     
0.795000016689     0.054168999195     -0.000000207881     
0.899999976158     0.059305001050     -0.000000189857     
1.004999995232     0.064606003463     -0.000000174270     
1.110000014305     0.069907002151     -0.000000159818     
1.215000033379     0.075042001903     -0.000000145239     
1.320000052452     0.080343000591     -0.000000132383     
1.424999952316     0.085643999279     -0.000000120662     
1.529999971390     0.090944997966     -0.000000108310     
1.634999990463     0.096245996654     -0.000000096714     
1.740000009537     0.101380996406     -0.000000087345     
1.845000028610     0.106682002544     -0.000000077934     
1.950000047684     0.111983001232     -0.000000067725     
2.055000066757     0.117118000984     -0.000000059112     
2.160000085831     0.122418999672     -0.000000050878     
2.265000104904     0.127719998360     -0.000000042265     
2.369999885559     0.133020997047     -0.000000034199     
2.474999904633     0.138321995735     -0.000000027855     
2.579999923706     0.143457993865     -0.000000020208     
2.684999942780     0.148758992553     -0.000000012268     
2.789999961853     0.154060006142     -0.000000005504     
2.829999923706     0.163501992822     0.000000007000     
2.934999942780     0.168636992574     0.000000013970     
3.039999961853     0.173938006163     0.000000019836     
3.144999980927     0.179073005915     0.000000026863     
3.250000000000     0.184374004602     0.000000034557     
3.355000019073     0.189510002732     0.000000041034     
3.460000038147     0.194811001420     0.000000047648     
3.565000057220     0.199946001172     0.000000055516     
3.670000076294     0.205081000924     0.000000062865     
3.775000095367     0.210381999612     0.000000069748     
3.880000114441     0.215682998300     0.000000077848     
3.930000066757     0.225125998259     0.000000093983     
4.034999847412     0.230426996946     0.000000101462     
4.139999866486     0.235727995634     0.000000109276     
4.244999885559     0.241028994322     0.000000118813     
4.349999904633     0.246163994074     0.000000128098     
4.454999923706     0.251464992762     0.000000136122     
4.559999942780     0.256765991449     0.000000144903     
4.664999961853     0.261900991201     0.000000155322     
4.769999980927     0.267201989889     0.000000164817     
4.875000000000     0.272502988577     0.000000174186     
4.980000019073     0.277803987265     0.000000184858     
5.085000038147     0.283104985952     0.000000194983     
5.190000057220     0.288239985704     0.000000204184     
5.295000076294     0.293541014194     0.000000214645     
5.400000095367     0.298842012882     0.000000225652     
5.505000114441     0.304143011570     0.000000235567     
5.610000133514     0.309444010258     0.000000245146     
5.715000152588     0.314579993486     0.000000256196     
5.820000171661     0.319880992174     0.000000265943     
5.925000190735     0.325015991926     0.000000275564     
6.030000209808     0.330316990614     0.000000286235     
6.135000228882     0.335617989302     0.000000296528     
6.239999771118     0.340918987989     0.000000305057     
6.344999790192     0.346219986677     0.000000314342     
6.449999809265     0.351354986429     0.000000324551     
6.554999828339     0.356655985117     0.000000333710     
6.659999847412     0.361957013607     0.000000342491     
6.764999866486     0.367258012295     0.000000352364     
6.869999885559     0.372393012047     0.000000361355     
6.974999904633     0.377694010735     0.000000369295     
7.079999923706     0.382995009422     0.000000378496     
7.184999942780     0.388130992651     0.000000388201     
7.289999961853     0.393597006798     0.000000396520     
7.394999980927     0.398732990026     0.000000404880     
7.500000000000     0.404033988714     0.000000414249     
7.605000019073     0.409334003925     0.000000423198     
7.710000038147     0.414469987154     0.000000431811     
7.815000057220     0.419770985842     0.000000441726     
7.920000076294     0.425072014332     0.000000451305     
8.024999618530     0.430373013020     0.000000459497     
8.130000114441     0.435674011707     0.000000468908     
8.234999656677     0.440809011459     0.000000479411     
8.340000152588     0.446110010147     0.000000488906     
8.444999694824     0.451411008835     0.000000498569     
8.550000190735     0.456712007523     0.000000509283     
8.654999732971     0.461847007275     0.000000519618     
8.760000228882     0.467314004898     0.000000529029     
8.864999771118     0.472449004650     0.000000540162     
8.970000267029     0.477750003338     0.000000551884     
9.074999809265     0.483051002026     0.000000562429     
9.180000305176     0.488186001778     0.000000573101     
9.284999847412     0.493487000465     0.000000585284     
9.390000343323     0.498787999153     0.000000596880     
9.494999885559     0.503924012184     0.000000608266     
9.600000381470     0.509225010872     0.000000620786     
9.704999923706     0.514526009560     0.000000633558     
9.810000419617     0.519661009312     0.000000644817     
9.914999961853     0.524962007999     0.000000657379     
10.020000457764     0.530263006687     0.000000670697     
10.125000000000     0.535564005375     0.000000683511     
10.229999542236     0.540699005127     0.000000696115     
10.335000038147     0.546166002750     0.000000709937     
10.439999580383     0.551301002502     0.000000723087     
10.545000076294     0.556602001190     0.000000735523     
10.649999618530     0.561737000942     0.000000749640     
10.755000114441     0.567037999630     0.000000764176     
10.859999656677     0.572338998318     0.000000777116     
10.965000152588     0.577639997005     0.000000790645     
11.069999694824     0.582940995693     0.000000805181     
11.175000190735     0.588077008724     0.000000819171     
11.279999732971     0.593378007412     0.000000832826     
11.385000228882     0.598679006100     0.000000847824     
11.489999771118     0.603814005852     0.000000862403     
11.595000267029     0.609115004539     0.000000875721     
11.699999809265     0.614416003227     0.000000890048     
11.805000305176     0.619717001915     0.000000905340     
11.909999847412     0.624852001667     0.000000919751     
12.015000343323     0.630153000355     0.000000933951     
12.119999885559     0.635453999043     0.000000949286     
12.225000381470     0.640754997730     0.000000963907     
12.329999923706     0.645889997482     0.000000977645     
12.435000419617     0.651190996170     0.000000993526     
12.539999961853     0.656491994858     0.000001008987     
12.645000457764     0.661792993546     0.000001023103     
12.685000419617     0.671898007393     0.000001056953     
12.789999961853     0.677034020424     0.000001070830     
12.895000457764     0.682335019112     0.000001084707     
13.000000000000     0.687470018864     0.000001100126     
13.104999542236     0.692937016487     0.000001114773     
13.210000038147     0.698072016239     0.000001127879     
13.314999580383     0.703373014927     0.000001142142     
13.420000076294     0.708674013615     0.000001156789     
13.524999618530     0.713975012302     0.000001170281     
13.630000114441     0.719276010990     0.000001182616     
13.734999656677     0.724411010742     0.000001196107     
13.840000152588     0.729712009430     0.000001208828     
13.944999694824     0.735013008118     0.000001220392     
14.050000190735     0.740314006805     0.000001233112     
14.154999732971     0.745449006557     0.000001245833     
14.260000228882     0.750750005245     0.000001256626     
14.364999771118     0.756051003933     0.000001268190     
14.470000267029     0.761352002621     0.000001280525     
14.574999809265     0.766488015652     0.000001291703     
14.680000305176     0.771789014339     0.000001303653     
14.784999847412     0.777088999748     0.000001316759     
14.890000343323     0.782389998436     0.000001328708     
14.994999885559     0.787690997124     0.000001340272     
15.100000381470     0.792991995811     0.000001352993     
15.204999923706     0.798128008842     0.000001366870     
15.310000419617     0.803429007530     0.000001379975     
15.414999961853     0.808730006218     0.000001392696     
15.520000457764     0.814031004906     0.000001406958     
15.625000000000     0.819166004658     0.000001421606     
15.729999542236     0.824467003345     0.000001435097     
15.835000038147     0.829768002033     0.000001450131     
15.939999580383     0.834903001785     0.000001465935     
16.045000076294     0.840369999409     0.000001480197     
16.149999618530     0.845504999161     0.000001494459     
16.254999160767     0.850805997849     0.000001510264     
16.360000610352     0.855940997601     0.000001525682     
16.465000152588     0.861241996288     0.000001541101     
16.569999694824     0.866542994976     0.000001557291     
16.674999237061     0.871843993664     0.000001572709     
16.780000686646     0.877144992352     0.000001587357     
16.885000228882     0.882445991039     0.000001602776     
16.989999771118     0.887746989727     0.000001619737     
17.094999313354     0.892883002758     0.000001633999     
17.200000762939     0.898184001446     0.000001648647     
17.305000305176     0.903485000134     0.000001664836     
17.409999847412     0.908785998821     0.000001679870     
17.514999389648     0.914085984230     0.000001694903     
17.620000839233     0.919221997261     0.000001710707     
17.725000381470     0.924522995949     0.000001726511     
17.829999923706     0.929823994637     0.000001740773     
17.934999465942     0.935124993324     0.000001755807     
18.040000915527     0.940259993076     0.000001771996     
18.145000457764     0.945560991764     0.000001787415     
18.250000000000     0.950861990452     0.000001802834     
18.354999542236     0.956162989140     0.000001819023     
18.459999084473     0.961463987827     0.000001835213     
18.565000534058     0.966598987579     0.000001850632     
18.670000076294     0.971899986267     0.000001866822     
18.774999618530     0.977200984955     0.000001884168     
18.879999160767     0.982336997986     0.000001900357     
18.985000610352     0.987636983395     0.000001917318     
19.090000152588     0.993103981018     0.000001935820     
19.194999694824     0.998238980770     0.000001953552     
19.299999237061     1.003540039063     0.000001971669     
19.405000686646     1.008841037750     0.000001991713     
19.510000228882     1.014142036438     0.000002011372     
19.614999771118     1.019278049469     0.000002030645     
19.719999313354     1.024579048157     0.000002051461     
19.825000762939     1.029880046844     0.000002073818     
19.930000305176     1.035014986992     0.000002095790     
20.034999847412     1.040315985680     0.000002118147     
20.139999389648     1.045616984367     0.000002142817     
20.245000839233     1.050917983055     0.000002167101     
20.350000381470     1.056218981743     0.000002191386     
20.454999923706     1.061354041100     0.000002217597     
20.559999465942     1.066655039787     0.000002245351     
20.665000915527     1.071956038475     0.000002272334     
20.770000457764     1.077257037163     0.000002300858     
20.875000000000     1.082391977310     0.000002330925     
20.979999542236     1.087692975998     0.000002360992     
21.084999084473     1.092993974686     0.000002392214     
21.190000534058     1.098294973373     0.000002425365     
21.295000076294     1.103430986404     0.000002459671     
21.399999618530     1.108731985092     0.000002492822     
21.504999160767     1.114032983780     0.000002528670     
21.610000610352     1.119333982468     0.000002566060     
21.715000152588     1.124634981155     0.000002603836     
21.819999694824     1.129770040512     0.000002642383     
21.924999237061     1.135071039200     0.000002683628     
22.030000686646     1.140372037888     0.000002724873     
22.135000228882     1.145506978035     0.000002765733     
22.239999771118     1.150974035263     0.000002810447     
22.344999313354     1.156108975410     0.000002856318     
22.450000762939     1.161409974098     0.000002901803     
22.555000305176     1.166710972786     0.000002949216     
22.659999847412     1.171846032143     0.000002998556     
22.764999389648     1.177147030830     0.000003049052     
22.870000839233     1.182448029518     0.000003099548     
22.975000381470     1.187749028206     0.000003153514     
23.079999923706     1.193050026894     0.000003208250     
23.184999465942     1.198019981384     0.000003253735     
23.290000915527     1.196032047272     0.000003118051     
23.395000457764     1.190731048584     0.000002934953     
23.500000000000     1.185430049896     0.000002766889     
23.604999542236     1.180129051208     0.000002611931     
23.709999084473     1.174828052521     0.000002469308     
23.815000534058     1.169692993164     0.000002335936     
23.920000076294     1.164391994476     0.000002211044     
24.024999618530     1.159255981445     0.000002095790     
24.129999160767     1.153956055641     0.000001988244     
24.235000610352     1.148655056953     0.000001886095     
24.340000152588     1.143354058266     0.000001790113     
24.444999694824     1.138218045235     0.000001701841     
24.549999237061     1.132917046547     0.000001617424     
24.655000686646     1.127616047859     0.000001538788     
24.760000228882     1.122315049171     0.000001465164     
24.864999771118     1.117014050484     0.000001395780     
24.969999313354     1.111878991127     0.000001328708     
25.075000762939     1.106577992439     0.000001267033     
25.180000305176     1.101276993752     0.000001209599     
25.284999847412     1.095975995064     0.000001154477     
25.389999389648     1.090674996376     0.000001102438     
25.495000839233     1.085540056229     0.000001054255     
25.600000381470     1.080239057541     0.000001007999     
25.704999923706     1.074938058853     0.000000963670     
25.809999465942     1.069636940956     0.000000923581     
25.915000915527     1.064335942268     0.000000885420     
26.020000457764     1.059201002121     0.000000848030     
26.125000000000     1.053900003433     0.000000813337     
26.229999542236     1.048599004745     0.000000780958     
26.334999084473     1.043462991714     0.000000749735     
26.440000534058     1.038161993027     0.000000720440     
26.545000076294     1.032860994339     0.000000693457     
26.649999618530     1.027559995651     0.000000667631     
26.754999160767     1.022258996964     0.000000641419     
26.860000610352     1.016958951950     0.000000617905     
26.965000152588     1.011823058128     0.000000596319     
27.069999694824     1.006522059441     0.000000574733     
27.174999237061     1.001220941544     0.000000554688     
27.280000686646     0.995920002460     0.000000536186     
27.385000228882     0.990785002708     0.000000517684     
27.489999771118     0.985484004021     0.000000499181     
27.594999313354     0.980183005333     0.000000483377     
27.700000762939     0.975048005581     0.000000468344     
27.805000305176     0.969747006893     0.000000452539     
27.909999847412     0.964446008205     0.000000437892     
28.014999389648     0.959145009518     0.000000424786     
28.120000839233     0.954008996487     0.000000411294     
28.225000381470     0.948543012142     0.000000398574     
28.329999923706     0.943408012390     0.000000387010     
28.434999465942     0.938107013702     0.000000375831     
28.540000915527     0.932806015015     0.000000363496     
28.645000457764     0.927670001984     0.000000352703     
28.750000000000     0.922369003296     0.000000343452     
28.854999542236     0.917068004608     0.000000333430     
28.924999237061     0.908785998821     0.000000317955     
29.030000686646     0.903649985790     0.000000308586     
29.135000228882     0.898348987103     0.000000300772     
29.239999771118     0.893047988415     0.000000292201     
29.344999313354     0.887746989727     0.000000283714     
29.450000762939     0.882445991039     0.000000276656     
29.555000305176     0.877144992352     0.000000269220     
29.659999847412     0.872009992599     0.000000260733     
29.764999389648     0.866708993912     0.000000253549     
29.870000839233     0.861407995224     0.000000247415     
29.975000381470     0.856106996536     0.000000240357     
30.079999923706     0.850971996784     0.000000233467     
30.184999465942     0.845670998096     0.000000227963     
30.290000915527     0.840369999409     0.000000221367     
30.395000457764     0.835234999657     0.000000214603     
30.500000000000     0.829934000969     0.000000209183     
30.604999542236     0.824633002281     0.000000204142     
30.709999084473     0.819332003593     0.000000197798     
30.815000534058     0.814195990562     0.000000191832     
30.920000076294     0.808894991875     0.000000186874     
31.024999618530     0.803593993187     0.000000181623     
31.129999160767     0.798292994499     0.000000175867     
31.235000610352     0.792991995811     0.000000171624     
31.340000152588     0.787690997124     0.000000166918     
31.444999694824     0.782555997372     0.000000160868     
31.549999237061     0.777254998684     0.000000155911     
31.655000686646     0.771953999996     0.000000152003     
31.760000228882     0.766653001308     0.000000147004     
31.864999771118     0.761518001556     0.000000141920     
31.969999313354     0.756217002869     0.000000137971     
32.075000762939     0.750916004181     0.000000133224     
32.180000305176     0.745781004429     0.000000127762     
32.284999847412     0.740480005741     0.000000124107     
32.389999389648     0.735179007053     0.000000120326     
32.494998931885     0.729878008366     0.000000115242     
32.599998474121     0.724577009678     0.000000110578     
32.705001831055     0.719440996647     0.000000107133     
32.810001373291     0.714139997959     0.000000102764     
32.915000915527     0.708838999271     0.000000098227     
33.020000457764     0.703538000584     0.000000094992     
33.125000000000     0.698403000832     0.000000091294     
33.229999542236     0.693102002144     0.000000086379     
33.334999084473     0.687801003456     0.000000082388     
33.439998626709     0.682500004768     0.000000079573     
33.544998168945     0.677365005016     0.000000075792     
33.650001525879     0.672064006329     0.000000071464     
33.755001068115     0.666763007641     0.000000068691     
33.860000610352     0.661462008953     0.000000064868     
33.965000152588     0.656327009201     0.000000060709     
34.069999694824     0.651026010513     0.000000057936     
34.174999237061     0.645725011826     0.000000055289     
34.279998779297     0.640424013138     0.000000051214     
34.384998321533     0.635123014450     0.000000047727     
34.490001678467     0.629987001419     0.000000044954     
34.595001220703     0.624521017075     0.000000041593     
34.700000762939     0.619386017323     0.000000038148     
34.805000305176     0.614085018635     0.000000036005     
34.909999847412     0.608784019947     0.000000033400     
35.014999389648     0.603483021259     0.000000029409     
35.119998931885     0.598347008228     0.000000026468     
