
Cycle 1
Physical Cycle 1
Step 1

Time (s),          Potential (V),         Current (A)
0.104999996722     0.001818999997     -0.000000419311     
0.209999993443     0.007110000122     -0.000000373568     
0.314999997616     0.012400999665     -0.000000335449     
0.419999986887     0.017692999914     -0.000000304954     
0.449999988079     0.027778999880     -0.000000330924     
0.555000007153     0.033070001751     -0.000000306738     
0.660000026226     0.038196001202     -0.000000282936     
0.764999985695     0.043487001210     -0.000000260286     
0.795000016689     0.053573999554     -0.000000231572     
0.899999976158     0.058864999563     -0.000000215037     
1.004999995232     0.064156003296     -0.000000199006     
1.110000014305     0.069447003305     -0.000000182639     
1.215000033379     0.074738003314     -0.000000168118     
1.320000052452     0.079864002764     -0.000000154773     
1.424999952316     0.085156001151     -0.000000141889     
1.529999971390     0.090447001159     -0.000000129761     
1.634999990463     0.095738001168     -0.000000119017     
1.740000009537     0.101029001176     -0.000000107728     
1.845000028610     0.106320001185     -0.000000096187     
1.950000047684     0.111446000636     -0.000000086535     
2.055000066757     0.116737000644     -0.000000077890     
2.160000085831     0.122028999031     -0.000000068909     
2.265000104904     0.127320006490     -0.000000060012     
2.369999885559     0.132446005940     -0.000000052290     
2.474999904633     0.137737005949     -0.000000043771     
2.579999923706     0.143028005958     -0.000000035756     
2.684999942780     0.148319005966     -0.000000029335     
2.789999961853     0.153611004353     -0.000000023333     
2.894999980927     0.158736005425     -0.000000016031     
3.000000000000     0.164028003812     -0.000000009107     
3.099999904633     0.170642003417     -0.000000003162     
3.204999923706     0.175768002868     0.000000003242     
3.309999942780     0.181059002876     0.000000008602     
3.414999961853     0.186350002885     0.000000013340     
3.519999980927     0.191476002336     0.000000019004     
3.625000000000     0.196767002344     0.000000024353     
3.730000019073     0.201893001795     0.000000028644     
3.835000038147     0.207184001803     0.000000033496     
3.940000057220     0.212475001812     0.000000038757     
4.045000076294     0.217767000198     0.000000042815     
4.150000095367     0.222892001271     0.000000046641     
4.255000114441     0.228183999658     0.000000051539     
4.360000133514     0.233474999666     0.000000056056     
4.465000152588     0.238600999117     0.000000059397     
4.570000171661     0.243891999125     0.000000063464     
4.675000190735     0.249017998576     0.000000067862     
4.780000209808     0.254308998585     0.000000071330     
4.885000228882     0.259600013494     0.000000074870     
4.989999771118     0.264892011881     0.000000079394     
5.094999790192     0.270016998053     0.000000083227     
5.199999809265     0.275308996439     0.000000086394     
5.304999828339     0.282088011503     0.000000093879     
5.409999847412     0.287378996611     0.000000097279     
5.514999866486     0.292670011520     0.000000101056     
5.619999885559     0.297962009907     0.000000105210     
5.724999904633     0.303252995014     0.000000108987     
5.829999923706     0.308544009924     0.000000112219     
5.934999942780     0.313670009375     0.000000116331     
6.039999961853     0.318960994482     0.000000122207     
6.144999980927     0.324252009392     0.000000127201     
6.250000000000     0.329544007778     0.000000131397     
6.355000019073     0.334834992886     0.000000136308     
6.460000038147     0.339960992336     0.000000141595     
6.565000057220     0.345252007246     0.000000146757     
6.670000076294     0.350542992353     0.000000153430     
6.775000095367     0.355834007263     0.000000161278     
6.880000114441     0.361124992371     0.000000168034     
6.985000133514     0.366250991821     0.000000174707     
7.090000152588     0.371708005667     0.000000182513     
7.195000171661     0.376834005117     0.000000191242     
7.300000190735     0.382124990225     0.000000200432     
7.405000209808     0.387416005135     0.000000210504     
7.510000228882     0.392542004585     0.000000221206     
7.614999771118     0.397832989693     0.000000231236     
7.719999790192     0.403124988079     0.000000242357     
7.824999809265     0.408416002989     0.000000255157     
7.929999828339     0.413706988096     0.000000268334     
8.034999847412     0.418832987547     0.000000281764     
8.140000343323     0.424124002457     0.000000296284     
8.244999885559     0.429414987564     0.000000311392     
8.350000381470     0.434706002474     0.000000326626     
8.454999923706     0.439998000860     0.000000342993     
8.560000419617     0.445288985968     0.000000361500     
8.664999961853     0.450414985418     0.000000379966     
8.770000457764     0.455706000328     0.000000398095     
8.875000000000     0.460996985435     0.000000417358     
8.979999542236     0.466288000345     0.000000437628     
9.085000038147     0.471413999796     0.000000458527     
9.189999580383     0.476705014706     0.000000480476     
9.295000076294     0.481997013092     0.000000503809     
9.399999618530     0.487287998199     0.000000526387     
9.505000114441     0.492413997650     0.000000549133     
9.609999656677     0.497705012560     0.000000573012     
9.715000152588     0.502996027470     0.000000598066     
9.819999694824     0.508122026920     0.000000623120     
9.925000190735     0.513413012028     0.000000649013     
10.029999732971     0.518705010414     0.000000674739     
10.135000228882     0.523995995522     0.000000700045     
10.239999771118     0.529286980629     0.000000725561     
10.345000267029     0.534412980080     0.000000753049     
10.449999809265     0.539704024792     0.000000779697     
10.555000305176     0.544995009899     0.000000805717     
10.659999847412     0.550121009350     0.000000832198     
10.765000343323     0.555411994457     0.000000858679     
10.869999885559     0.560703992844     0.000000884404     
10.975000381470     0.565994977951     0.000000910927     
11.079999923706     0.571286022663     0.000000938499     
11.185000419617     0.576412022114     0.000000964644     
11.289999961853     0.581703007221     0.000000989614     
11.395000457764     0.586993992329     0.000001015340     
11.444999694824     0.596584975719     0.000001075693     
11.550000190735     0.601876020432     0.000001099879     
11.654999732971     0.607167005539     0.000001124065     
11.760000228882     0.612293004990     0.000001148635     
11.864999771118     0.617583990097     0.000001173205     
11.970000267029     0.622874975204     0.000001196623     
12.074999809265     0.628166973591     0.000001221192     
12.180000305176     0.633292019367     0.000001245378     
12.284999847412     0.638584017754     0.000001269564     
12.390000343323     0.643875002861     0.000001291830     
12.494999885559     0.649165987968     0.000001314480     
12.600000381470     0.654456973076     0.000001337131     
12.704999923706     0.659748017788     0.000001359781     
12.810000419617     0.665040016174     0.000001381663     
12.914999961853     0.670331001282     0.000001404697     
13.020000457764     0.675621986389     0.000001425428     
13.125000000000     0.680747985840     0.000001446159     
13.229999542236     0.686038970947     0.000001467657     
13.335000038147     0.691330015659     0.000001488388     
13.439999580383     0.696622014046     0.000001507967     
13.545000076294     0.701912999153     0.000001528314     
13.649999618530     0.707203984261     0.000001546357     
13.755000114441     0.712495028973     0.000001564785     
13.859999656677     0.717621028423     0.000001583212     
13.965000152588     0.722912013531     0.000001602791     
14.069999694824     0.728204011917     0.000001620450     
14.175000190735     0.733494997025     0.000001636958     
14.279999732971     0.738785982132     0.000001653466     
14.385000228882     0.744077026844     0.000001670358     
14.489999771118     0.749203026295     0.000001686098     
14.595000267029     0.754494011402     0.000001703373     
14.699999809265     0.759786009789     0.000001718729     
14.805000305176     0.765076994896     0.000001732550     
14.909999847412     0.770367980003     0.000001746370     
15.015000343323     0.775493979454     0.000001760575     
15.119999885559     0.780785024166     0.000001775163     
15.225000381470     0.786076009274     0.000001788983     
15.329999923706     0.791366994381     0.000001802036     
15.435000419617     0.796658992767     0.000001815089     
15.539999961853     0.801784992218     0.000001826990     
15.645000457764     0.807241022587     0.000001839274     
15.750000000000     0.812367022038     0.000001853095     
15.854999542236     0.817658007145     0.000001864996     
15.960000038147     0.822948992252     0.000001876513     
16.065000534058     0.828240990639     0.000001888798     
16.170000076294     0.833531975746     0.000001900699     
16.274999618530     0.838657975197     0.000001911448     
16.379999160767     0.843949019909     0.000001924117     
16.485000610352     0.849240005016     0.000001936786     
16.590000152588     0.854530990124     0.000001947919     
16.694999694824     0.859822988510     0.000001959052     
16.799999237061     0.865113973618     0.000001970953     
16.905000686646     0.870405018330     0.000001984773     
17.010000228882     0.875531017780     0.000001996674     
17.114999771118     0.880822002888     0.000002009727     
17.219999313354     0.886112987995     0.000002022396     
17.325000762939     0.891404986382     0.000002034681     
17.430000305176     0.896695971489     0.000002047349     
17.534999847412     0.901987016201     0.000002061170     
17.639999389648     0.907113015652     0.000002075374     
17.745000839233     0.912404000759     0.000002089195     
17.850000381470     0.917694985867     0.000002102631     
17.954999923706     0.922985970974     0.000002116452     
18.059999465942     0.928278028965     0.000002130656     
18.165000915527     0.933569014072     0.000002145244     
18.270000457764     0.938859999180     0.000002160984     
18.375000000000     0.943985998631     0.000002174421     
18.479999542236     0.949276983738     0.000002187857     
18.584999084473     0.954568028450     0.000002201678     
18.690000534058     0.959860026836     0.000002215498     
18.795000076294     0.965151011944     0.000002228935     
18.899999618530     0.970277011395     0.000002242372     
19.004999160767     0.975567996502     0.000002255808     
19.110000610352     0.980858981609     0.000002266941     
19.215000152588     0.986150026321     0.000002277691     
19.319999694824     0.991442024708     0.000002289975     
19.424999237061     0.996733009815     0.000002301492     
19.530000686646     1.001858949661     0.000002312242     
19.635000228882     1.007150053978     0.000002323375     
19.739999771118     1.012441039085     0.000002333740     
19.844999313354     1.017732024193     0.000002343722     
19.950000762939     1.023023962975     0.000002353319     
20.055000305176     1.028314948082     0.000002364452     
20.159999847412     1.033606052399     0.000002375202     
20.264999389648     1.038732051849     0.000002385183     
20.370000839233     1.044023036957     0.000002394781     
20.475000381470     1.049314022064     0.000002405146     
20.579999923706     1.054605007172     0.000002414360     
20.684999465942     1.059896945953     0.000002425877     
20.790000915527     1.065188050270     0.000002437778     
20.895000457764     1.070479035378     0.000002447759     
21.000000000000     1.075605034828     0.000002457741     
21.104999542236     1.080896019936     0.000002469258     
21.209999084473     1.086187005043     0.000002480775     
21.315000534058     1.091478943825     0.000002492292     
21.420000076294     1.096770048141     0.000002504193     
21.524999618530     1.102061033249     0.000002516862     
21.629999160767     1.107352018356     0.000002528762     
21.735000610352     1.112643957138     0.000002541047     
21.840000152588     1.117769002914     0.000002556020     
21.944999694824     1.123060941696     0.000002570224     
22.049999237061     1.128352046013     0.000002584428     
22.155000686646     1.133643031120     0.000002599400     
22.260000228882     1.138769030571     0.000002615140     
22.364999771118     1.144225001335     0.000002630497     
22.469999313354     1.149351000786     0.000002648156     
22.575000762939     1.154643058777     0.000002667351     
22.680000305176     1.159934043884     0.000002685394     
22.784999847412     1.165060043335     0.000002704206     
22.889999389648     1.170516014099     0.000002724552     
22.995000839233     1.175642013550     0.000002746051     
23.100000381470     1.180932998657     0.000002767550     
23.204999923706     1.186223983765     0.000002792503     
23.309999465942     1.191516041756     0.000002818992     
23.415000915527     1.196807026863     0.000002843178     
23.520000457764     1.196475982666     0.000002690385     
23.625000000000     1.191184997559     0.000002483462     
23.729999542236     1.185894012451     0.000002311474     
23.834999084473     1.180603027344     0.000002162520     
23.940000534058     1.175477027893     0.000002033913     
24.045000076294     1.170184969902     0.000001917207     
24.149999618530     1.164893984795     0.000001813169     
24.254999160767     1.159602999687     0.000001721033     
24.360000610352     1.154477000237     0.000001639645     
24.465000152588     1.149021029472     0.000001565552     
24.569999694824     1.143895030022     0.000001495682     
24.674999237061     1.138604044914     0.000001433490     
24.780000686646     1.133311986923     0.000001375905     
24.885000228882     1.128185987473     0.000001322926     
24.989999771118     1.122895002365     0.000001274555     
25.094999313354     1.117439031601     0.000001230406     
25.200000762939     1.112313032150     0.000001188561     
25.305000305176     1.107022047043     0.000001148251     
25.409999847412     1.101729989052     0.000001111780     
25.514999389648     1.096439003944     0.000001078381     
25.620000839233     1.091313004494     0.000001046133     
25.725000381470     1.086022019386     0.000001016572     
25.829999923706     1.080731034279     0.000000988164     
25.934999465942     1.075440049171     0.000000960139     
26.040000915527     1.070147991180     0.000000934034     
26.145000457764     1.064857006073     0.000000910232     
26.250000000000     1.059731006622     0.000000887581     
26.354999542236     1.054440021515     0.000000864931     
26.459999084473     1.049149036407     0.000000843433     
26.565000534058     1.043858051300     0.000000822702     
26.670000076294     1.038565993309     0.000000802355     
26.774999618530     1.033275008202     0.000000783928     
26.879999160767     1.027984023094     0.000000766652     
26.985000610352     1.022858023643     0.000000748993     
27.090000152588     1.017567038536     0.000000730566     
27.194999694824     1.012276053429     0.000000713290     
27.299999237061     1.007150053978     0.000000697166     
27.405000686646     1.001693010330     0.000000681042     
27.510000228882     0.996402025223     0.000000666454     
27.614999771118     0.991110980511     0.000000651866     
27.719999313354     0.985984981060     0.000000636126     
27.825000762939     0.980693995953     0.000000620770     
27.930000305176     0.975403010845     0.000000606181     
28.034999847412     0.970111012459     0.000000593512     
28.139999389648     0.964986026287     0.000000579692     
28.245000839233     0.959694027901     0.000000566639     
28.350000381470     0.954402983189     0.000000553587     
28.454999923706     0.949111998081     0.000000539766     
28.559999465942     0.943821012974     0.000000526714     
28.665000915527     0.938529014587     0.000000515580     
28.770000457764     0.933404028416     0.000000503296     
28.875000000000     0.928111970425     0.000000491011     
28.979999542236     0.922820985317     0.000000478726     
29.084999084473     0.917530000210     0.000000467593     
29.190000534058     0.912239015102     0.000000454924     
29.295000076294     0.906947016716     0.000000443791     
29.399999618530     0.901821970940     0.000000434193     
29.504999160767     0.896364986897     0.000000423060     
29.610000610352     0.891238987446     0.000000410775     
29.715000152588     0.885948002338     0.000000400410     
29.819999694824     0.880657017231     0.000000389277     
29.924999237061     0.875365972519     0.000000379295     
30.030000686646     0.870073974133     0.000000368930     
30.135000228882     0.864782989025     0.000000359332     
30.239999771118     0.859656989574     0.000000347815     
30.344999313354     0.854366004467     0.000000337066     
30.420000076294     0.846428990364     0.000000311098     
30.524999618530     0.841138005257     0.000000302369     
30.629999160767     0.835847020149     0.000000294312     
30.735000610352     0.830555975437     0.000000283862     
30.840000152588     0.825429975986     0.000000272573     
30.944999694824     0.820137977600     0.000000263005     
31.049999237061     0.814846992493     0.000000252723     
31.155000686646     0.809556007385     0.000000243071     
31.260000228882     0.804265022278     0.000000233670     
31.364999771118     0.798973977566     0.000000225235     
31.469999313354     0.793681979179     0.000000214785     
31.575000762939     0.788556993008     0.000000204209     
31.680000305176     0.783264994621     0.000000195229     
31.784999847412     0.777974009514     0.000000186751     
31.889999389648     0.772683024406     0.000000177645     
31.995000839233     0.767557024956     0.000000169167     
32.099998474121     0.762099981308     0.000000159641     
32.205001831055     0.756974995136     0.000000150408     
32.310001373291     0.751682996750     0.000000142225     
32.415000915527     0.746392011642     0.000000136098     
32.520000457764     0.741101026535     0.000000128544     
32.625000000000     0.735975027084     0.000000121032     
32.729999542236     0.730683982372     0.000000114737     
32.834999084473     0.725392997265     0.000000108861     
32.939998626709     0.720100998878     0.000000103448     
33.044998168945     0.714810013771     0.000000100216     
33.150001525879     0.709519028664     0.000000098915     
33.255001068115     0.704393029213     0.000000097027     
33.360000610352     0.699101984501     0.000000094970     
33.465000152588     0.693810999393     0.000000095936     
33.569999694824     0.688684999943     0.000000097614     
33.674999237061     0.683394014835     0.000000100090     
33.779998779297     0.678102016449     0.000000103825     
33.884998321533     0.672810971737     0.000000107770     
33.990001678467     0.667519986629     0.000000110078     
34.095001220703     0.662229001522     0.000000113100     
34.200000762939     0.656938016415     0.000000117171     
34.305000305176     0.651646018028     0.000000120738     
34.409999847412     0.646354973316     0.000000121997     
34.514999389648     0.641063988209     0.000000123004     
34.619998931885     0.635773003101     0.000000122501     
34.724998474121     0.630481004715     0.000000120444     
34.830001831055     0.625356018543     0.000000118052     
34.935001373291     0.620064020157     0.000000116415     
35.040000915527     0.614772975445     0.000000112135     
35.145000457764     0.609481990337     0.000000106805     
35.250000000000     0.604191005230     0.000000100888     
