
Cycle 1
Physical Cycle 1
Step 1

Time (s),          Potential (V),         Current (A)
0.104999996722     0.002485000063     -0.000000710764     
0.209999993443     0.007619999815     -0.000000668729     
0.314999997616     0.012920999900     -0.000000630516     
0.419999986887     0.018222000450     -0.000000592303     
0.449999988079     0.028161000460     -0.000000530018     
0.555000007153     0.033461999148     -0.000000499181     
0.660000026226     0.038763001561     -0.000000470656     
0.764999985695     0.044064000249     -0.000000444059     
0.870000004768     0.049199998379     -0.000000418233     
0.975000023842     0.054501000792     -0.000000393563     
1.080000042915     0.059801999480     -0.000000370820     
1.184999942780     0.065103001893     -0.000000350390     
1.289999961853     0.070238001645     -0.000000329961     
1.394999980927     0.075539000332     -0.000000310687     
1.414999961853     0.086305998266     -0.000000275102     
1.519999980927     0.091606996953     -0.000000258591     
1.625000000000     0.096908003092     -0.000000243718     
1.730000019073     0.102044001222     -0.000000230652     
1.835000038147     0.107344999909     -0.000000216788     
1.940000057220     0.112645998597     -0.000000203343     
2.045000076294     0.117780998349     -0.000000191118     
2.150000095367     0.123081997037     -0.000000179606     
2.255000114441     0.128382995725     -0.000000168262     
2.359999895096     0.133683994412     -0.000000158725     
2.464999914169     0.138818994164     -0.000000148978     
2.569999933243     0.144119992852     -0.000000139736     
2.674999952316     0.149256005883     -0.000000130367     
2.779999971390     0.154722005129     -0.000000121796     
2.884999990463     0.159857004881     -0.000000114024     
2.990000009537     0.165158003569     -0.000000106377     
3.095000028610     0.170459002256     -0.000000099781     
3.200000047684     0.175595000386     -0.000000092849     
3.305000066757     0.180895999074     -0.000000085665     
3.410000085831     0.186196997762     -0.000000078859     
3.515000104904     0.191497996449     -0.000000074027     
3.619999885559     0.196798995137     -0.000000067347     
3.724999904633     0.201933994889     -0.000000062053     
3.829999923706     0.207401007414     -0.000000057390     
3.934999942780     0.212536007166     -0.000000051928     
4.039999961853     0.217837005854     -0.000000045164     
4.144999980927     0.223138004541     -0.000000041719     
4.250000000000     0.228273004293     -0.000000036677     
4.355000019073     0.233574002981     -0.000000031258     
4.460000038147     0.238875001669     -0.000000027729     
4.565000057220     0.244176000357     -0.000000022225     
4.670000076294     0.249476999044     -0.000000016973     
4.739999771118     0.257427990437     -0.000000009617     
4.844999790192     0.262728989124     -0.000000004338     
4.949999809265     0.267865002155     -0.000000000588     
5.054999828339     0.273166000843     0.000000004695     
5.159999847412     0.278466999531     0.000000010929     
5.264999866486     0.283601999283     0.000000015252     
5.369999885559     0.288902997971     0.000000021186     
5.474999904633     0.294203996658     0.000000027489     
5.579999923706     0.299338996410     0.000000032991     
5.684999942780     0.304639995098     0.000000039248     
5.789999961853     0.309776008129     0.000000045892     
5.894999980927     0.314911007881     0.000000052729     
6.000000000000     0.320212006569     0.000000059870     
6.105000019073     0.325347006321     0.000000067203     
6.210000038147     0.330648005009     0.000000074681     
6.315000057220     0.335783004761     0.000000083274     
6.394999980927     0.343735009432     0.000000096462     
6.500000000000     0.349202007055     0.000000105747     
6.605000019073     0.354337006807     0.000000113982     
6.710000038147     0.359638005495     0.000000122300     
6.815000057220     0.364939004183     0.000000131249     
6.920000076294     0.370074003935     0.000000141122     
7.025000095367     0.375375002623     0.000000149441     
7.130000114441     0.380676001310     0.000000158978     
7.235000133514     0.385976999998     0.000000167968     
7.340000152588     0.391277998686     0.000000175573     
7.445000171661     0.396578997374     0.000000184059     
7.550000190735     0.401713997126     0.000000192798     
7.655000209808     0.407014995813     0.000000201831     
7.760000228882     0.412151008844     0.000000208721     
7.864999771118     0.417452007532     0.000000217754     
7.969999790192     0.422753006220     0.000000225484     
8.074999809265     0.428054004908     0.000000232332     
8.180000305176     0.433355003595     0.000000240147     
8.284999847412     0.438654989004     0.000000248423     
8.390000343323     0.443791002035     0.000000256742     
8.494999885559     0.449092000723     0.000000262876     
8.600000381470     0.454392999411     0.000000271321     
8.704999923706     0.459527999163     0.000000278673     
8.810000419617     0.464994996786     0.000000285647     
8.914999961853     0.470129996538     0.000000293167     
9.020000457764     0.475430995226     0.000000302368     
9.125000000000     0.480731993914     0.000000308880     
9.229999542236     0.485866993666     0.000000316023     
9.335000038147     0.491167992353     0.000000324131     
9.439999580383     0.496468991041     0.000000331651     
9.545000076294     0.501770019531     0.000000338710     
9.649999618530     0.507071018219     0.000000348121     
9.755000114441     0.512206017971     0.000000355473     
9.859999656677     0.517341971397     0.000000362825     
9.965000152588     0.522643029690     0.000000371312     
10.069999694824     0.527944028378     0.000000379420     
10.175000190735     0.533245027065     0.000000387781     
10.279999732971     0.538546025753     0.000000396057     
10.385000228882     0.543847024441     0.000000405342     
10.489999771118     0.548982024193     0.000000414375     
10.595000267029     0.554283022881     0.000000421770     
10.699999809265     0.559584021568     0.000000430928     
10.805000305176     0.564885020256     0.000000440885     
10.909999847412     0.570020020008     0.000000450380     
11.015000343323     0.575321018696     0.000000458615     
11.119999885559     0.580622017384     0.000000469160     
11.225000381470     0.585923016071     0.000000479327     
11.329999923706     0.591224014759     0.000000487814     
11.435000419617     0.596359014511     0.000000498485     
11.539999961853     0.601660013199     0.000000509703     
11.645000457764     0.606961011887     0.000000519954     
11.750000000000     0.612262010574     0.000000529575     
11.854999542236     0.617398023605     0.000000541129     
11.960000038147     0.622699022293     0.000000552556     
12.064999580383     0.628000020981     0.000000562429     
12.170000076294     0.633135020733     0.000000575411     
12.274999618530     0.638436019421     0.000000587553     
12.380000114441     0.643737018108     0.000000598098     
12.484999656677     0.648872017860     0.000000610072     
12.590000152588     0.654173016548     0.000000623558     
12.694999694824     0.659474015236     0.000000635028     
12.800000190735     0.664775013924     0.000000648052     
12.904999732971     0.670076012611     0.000000661874     
13.010000228882     0.675211012363     0.000000674856     
13.114999771118     0.680512011051     0.000000687838     
13.220000267029     0.685813009739     0.000000700610     
13.324999809265     0.691114008427     0.000000715525     
13.430000305176     0.696250021458     0.000000729095     
13.534999847412     0.701551020145     0.000000742960     
13.640000343323     0.706852018833     0.000000757790     
13.744999885559     0.712153017521     0.000000772075     
13.850000381470     0.717288017273     0.000000785729     
13.954999923706     0.722589015961     0.000000800013     
14.060000419617     0.727890014648     0.000000816104     
14.164999961853     0.733025014400     0.000000830263     
14.270000457764     0.738492012024     0.000000844925     
14.375000000000     0.743627011776     0.000000860176     
14.479999542236     0.748928010464     0.000000874797     
14.585000038147     0.754229009151     0.000000888829     
14.689999580383     0.759364008904     0.000000903996     
14.795000076294     0.764665007591     0.000000919709     
14.899999618530     0.769801020622     0.000000933153     
15.005000114441     0.775102019310     0.000000947774     
15.109999656677     0.780403017998     0.000000962520     
15.215000152588     0.785704016685     0.000000976595     
15.319999694824     0.791005015373     0.000000990543     
15.425000190735     0.796140015125     0.000001005247     
15.529999732971     0.801441013813     0.000001019574     
15.635000228882     0.806742012501     0.000001031380     
15.680000305176     0.816515028477     0.000001060422     
15.784999847412     0.821816027164     0.000001073914     
15.890000343323     0.827117025852     0.000001085478     
15.994999885559     0.832418024540     0.000001098198     
16.100000381470     0.837719023228     0.000001110919     
16.204999923706     0.842854976654     0.000001122097     
16.309999465942     0.848155975342     0.000001133276     
16.415000915527     0.853456974030     0.000001144840     
16.520000457764     0.858591973782     0.000001156789     
16.625000000000     0.863892972469     0.000001166812     
16.729999542236     0.869193971157     0.000001177605     
16.834999084473     0.874495029449     0.000001189169     
16.940000534058     0.879796028137     0.000001198805     
17.045000076294     0.884931027889     0.000001208828     
17.149999618530     0.890232026577     0.000001219621     
17.254999160767     0.895533025265     0.000001230028     
17.360000610352     0.900834023952     0.000001238509     
17.465000152588     0.906135022640     0.000001247760     
17.569999694824     0.911436021328     0.000001257782     
17.674999237061     0.916571021080     0.000001267419     
17.780000686646     0.921872019768     0.000001276285     
17.885000228882     0.927173018456     0.000001286307     
17.989999771118     0.932474017143     0.000001295172     
18.094999313354     0.937609970570     0.000001303653     
18.200000762939     0.942911028862     0.000001312519     
18.305000305176     0.948212027550     0.000001322155     
18.409999847412     0.953512012959     0.000001331021     
18.514999389648     0.958813011646     0.000001340658     
18.620000839233     0.963949024677     0.000001349523     
18.725000381470     0.969250023365     0.000001358775     
18.829999923706     0.974385023117     0.000001367255     
18.934999465942     0.979852020741     0.000001376892     
19.040000915527     0.984987020493     0.000001387299     
19.145000457764     0.990288019180     0.000001396551     
19.250000000000     0.995589017868     0.000001405802     
19.354999542236     1.000890016556     0.000001416209     
19.459999084473     1.006191015244     0.000001426232     
19.565000534058     1.011325955391     0.000001436639     
19.670000076294     1.016626954079     0.000001447432     
19.774999618530     1.021927952766     0.000001458996     
19.879999160767     1.027228951454     0.000001469789     
19.985000610352     1.032529950142     0.000001481354     
20.090000152588     1.037665009499     0.000001493688     
20.194999694824     1.042966008186     0.000001506023     
20.299999237061     1.048267006874     0.000001518744     
20.405000686646     1.053568005562     0.000001532621     
20.510000228882     1.058869004250     0.000001546883     
20.614999771118     1.064005017281     0.000001560374     
20.719999313354     1.069306015968     0.000001575408     
20.825000762939     1.074607014656     0.000001590826     
20.930000305176     1.079741954803     0.000001607016     
21.034999847412     1.085042953491     0.000001623591     
21.139999389648     1.090343952179     0.000001641708     
21.245000839233     1.095644950867     0.000001659825     
21.350000381470     1.100945949554     0.000001677942     
21.454999923706     1.106081008911     0.000001697601     
21.559999465942     1.111382007599     0.000001719187     
21.665000915527     1.116683006287     0.000001740388     
21.770000457764     1.121984004974     0.000001763131     
21.875000000000     1.127118945122     0.000001786644     
21.979999542236     1.132419943810     0.000001811700     
22.084999084473     1.137720942497     0.000001837140     
22.190000534058     1.143021941185     0.000001864509     
22.295000076294     1.148323059082     0.000001893033     
22.399999618530     1.153458952904     0.000001922714     
22.504999160767     1.158759951591     0.000001954323     
22.610000610352     1.164059996605     0.000001987088     
22.715000152588     1.169360995293     0.000002021009     
22.819999694824     1.174661993980     0.000002057243     
22.924999237061     1.179798007011     0.000002095790     
23.030000686646     1.185099005699     0.000002135493     
23.135000228882     1.190400004387     0.000002175967     
23.239999771118     1.195534944534     0.000002219525     
23.344999313354     1.198351025581     0.000002200251     
23.450000762939     1.193547010422     0.000002042595     
23.555000305176     1.188246011734     0.000001901899     
23.659999847412     1.183110952377     0.000001777393     
23.764999389648     1.177809953690     0.000001664836     
23.870000839233     1.172508955002     0.000001563458     
23.975000381470     1.167207956314     0.000001472873     
24.079999923706     1.162073016167     0.000001392310     
24.184999465942     1.156772017479     0.000001316373     
24.290000915527     1.151471018791     0.000001248531     
24.395000457764     1.146170020103     0.000001186471     
24.500000000000     1.141034007072     0.000001129421     
24.604999542236     1.135733008385     0.000001076998     
24.709999084473     1.130432009697     0.000001029585     
24.815000534058     1.125296950340     0.000000986413     
24.920000076294     1.119995951653     0.000000945938     
25.024999618530     1.114694952965     0.000000907777     
25.129999160767     1.109393954277     0.000000873856     
25.235000610352     1.104092955589     0.000000841091     
25.340000152588     1.098958015442     0.000000811796     
25.444999694824     1.093657016754     0.000000784813     
25.549999237061     1.088356018066     0.000000759372     
25.655000686646     1.083220958710     0.000000734317     
25.760000228882     1.077754020691     0.000000711959     
25.864999771118     1.072453022003     0.000000692301     
25.969999313354     1.067317962646     0.000000673027     
26.075000762939     1.062016963959     0.000000655296     
26.180000305176     1.056880950928     0.000000638335     
26.284999847412     1.051414966583     0.000000622531     
26.389999389648     1.046280026436     0.000000606341     
26.495000839233     1.040979027748     0.000000592079     
26.600000381470     1.035678029060     0.000000579744     
26.704999923706     1.030377030373     0.000000567023     
26.809999465942     1.025076031685     0.000000554688     
26.915000915527     1.019940018654     0.000000543510     
27.020000457764     1.014639019966     0.000000532717     
27.125000000000     1.009338021278     0.000000521924     
27.229999542236     1.004037022591     0.000000512672     
27.334999084473     0.998736023903     0.000000504192     
27.440000534058     0.993601024151     0.000000494941     
27.545000076294     0.988300025463     0.000000486075     
27.649999618530     0.982999026775     0.000000478366     
27.754999160767     0.977698028088     0.000000470271     
27.860000610352     0.972563028336     0.000000462562     
27.965000152588     0.967262029648     0.000000455623     
28.069999694824     0.961960971355     0.000000449456     
28.174999237061     0.956659972668     0.000000441746     
28.280000686646     0.951358973980     0.000000435193     
28.385000228882     0.946223974228     0.000000429411     
28.489999771118     0.940922975540     0.000000423244     
28.594999313354     0.935621976852     0.000000417462     
28.700000762939     0.930486023426     0.000000412065     
28.805000305176     0.925185024738     0.000000407054     
28.909999847412     0.919884026051     0.000000400116     
29.014999389648     0.914583027363     0.000000395105     
29.120000839233     0.909282028675     0.000000391635     
29.225000381470     0.903981983662     0.000000385468     
29.329999923706     0.898680984974     0.000000380457     
29.434999465942     0.893379986286     0.000000376217     
29.540000915527     0.888243973255     0.000000371206     
29.645000457764     0.882942974567     0.000000365809     
29.750000000000     0.877641975880     0.000000361954     
29.770000457764     0.867039978504     0.000000352868     
29.875000000000     0.861738979816     0.000000348667     
29.979999542236     0.856437981129     0.000000344465     
30.084999084473     0.851136982441     0.000000340054     
30.190000534058     0.845835983753     0.000000335727     
30.295000076294     0.840700984001     0.000000332450     
30.399999618530     0.835399985313     0.000000328963     
30.504999160767     0.830098986626     0.000000324215     
30.610000610352     0.824797987938     0.000000320350     
30.715000152588     0.819662988186     0.000000316737     
30.819999694824     0.814361989498     0.000000312872     
30.924999237061     0.809060990810     0.000000309174     
31.030000686646     0.803759992123     0.000000306528     
31.135000228882     0.798624992371     0.000000302830     
31.239999771118     0.793323993683     0.000000298755     
31.344999313354     0.788022994995     0.000000295016     
31.450000762939     0.782721996307     0.000000292747     
31.555000305176     0.777585983276     0.000000289386     
31.659999847412     0.772284984589     0.000000286235     
31.764999389648     0.766984999180     0.000000283504     
31.870000839233     0.761684000492     0.000000280605     
31.975000381470     0.756383001804     0.000000276782     
32.080001831055     0.751246988773     0.000000274388     
32.185001373291     0.745945990086     0.000000272203     
32.290000915527     0.740644991398     0.000000269262     
32.395000457764     0.735509991646     0.000000266363     
32.500000000000     0.730208992958     0.000000264136     
32.604999542236     0.724907994270     0.000000261574     
32.709999084473     0.719606995583     0.000000259347     
32.814998626709     0.714471995831     0.000000258128     
32.919998168945     0.709170997143     0.000000256532     
33.025001525879     0.703703999519     0.000000254347     
33.130001068115     0.698568999767     0.000000252835     
33.235000610352     0.693268001080     0.000000252163     
33.340000152588     0.687967002392     0.000000251364     
33.444999694824     0.682666003704     0.000000250860     
33.549999237061     0.677365005016     0.000000251280     
33.654998779297     0.672230005264     0.000000250902     
33.759998321533     0.666929006577     0.000000249852     
33.865001678467     0.661628007889     0.000000249558     
33.970001220703     0.656327009201     0.000000249726     
34.075000762939     0.651190996170     0.000000248297     
34.180000305176     0.645889997482     0.000000246491     
34.284999847412     0.640588998795     0.000000244516     
34.389999389648     0.635288000107     0.000000241155     
34.494998931885     0.630153000355     0.000000236870     
34.599998474121     0.624852001667     0.000000233047     
34.705001831055     0.619551002979     0.000000228719     
34.810001373291     0.614250004292     0.000000222501     
34.915000915527     0.609115004539     0.000000216536     
35.020000457764     0.603648006916     0.000000210738     
35.125000000000     0.598679006100     0.000000203932     
