
Cycle 1
Physical Cycle 1
Step 1

Time (s),          Potential (V),         Current (A)
0.104999996722     0.002485000063     -0.000000103175     
0.209999993443     0.007619999815     -0.000000091711     
0.314999997616     0.012920999900     -0.000000084069     
0.419999986887     0.018222000450     -0.000000076426     
0.449999988079     0.028161000460     -0.000000066300     
0.555000007153     0.033461999148     -0.000000061289     
0.660000026226     0.038763001561     -0.000000055893     
0.764999985695     0.043898999691     -0.000000051267     
0.795000016689     0.054003998637     -0.000000043988     
0.899999976158     0.059305001050     -0.000000040837     
1.004999995232     0.064606003463     -0.000000037140     
1.110000014305     0.069907002151     -0.000000033989     
1.215000033379     0.075042001903     -0.000000031342     
1.320000052452     0.080343000591     -0.000000028191     
1.424999952316     0.085643999279     -0.000000025670     
1.519999980927     0.092601001263     -0.000000022950     
1.625000000000     0.097736999393     -0.000000021126     
1.730000019073     0.103037998080     -0.000000019616     
1.835000038147     0.108338996768     -0.000000017190     
1.940000057220     0.113640002906     -0.000000014736     
2.045000076294     0.118775002658     -0.000000013598     
2.150000095367     0.124076001346     -0.000000012586     
2.255000114441     0.129376992583     -0.000000010971     
2.359999895096     0.134512007236     -0.000000009681     
2.464999914169     0.139979004860     -0.000000008358     
2.569999933243     0.145114004612     -0.000000006367     
2.674999952316     0.150415003300     -0.000000004979     
2.779999971390     0.155716001987     -0.000000004824     
2.884999990463     0.161017000675     -0.000000003993     
2.990000009537     0.166152000427     -0.000000002628     
3.095000028610     0.171287998557     -0.000000001486     
3.200000047684     0.176588997245     -0.000000000550     
3.305000066757     0.181889995933     0.000000000857     
3.410000085831     0.187190994620     0.000000001619     
3.515000104904     0.192491993308     0.000000001566     
3.619999885559     0.197793006897     0.000000002416     
3.724999904633     0.202928006649     0.000000003982     
3.829999923706     0.208229005337     0.000000004751     
3.934999942780     0.213530004025     0.000000005320     
4.039999961853     0.218665003777     0.000000006447     
4.144999980927     0.223966002464     0.000000006886     
4.250000000000     0.229267001152     0.000000007178     
4.355000019073     0.234567999840     0.000000008547     
4.460000038147     0.239868998528     0.000000010098     
4.565000057220     0.245003998280     0.000000010663     
4.670000076294     0.250304996967     0.000000011103     
4.775000095367     0.255605995655     0.000000012226     
4.880000114441     0.260742008686     0.000000013360     
4.985000133514     0.266043007374     0.000000014387     
5.090000152588     0.271178007126     0.000000016317     
5.195000171661     0.276479005814     0.000000018232     
5.300000190735     0.281780004501     0.000000018850     
5.405000209808     0.287081003189     0.000000020144     
5.510000228882     0.292382001877     0.000000022324     
5.614999771118     0.297517001629     0.000000024444     
5.719999790192     0.302818000317     0.000000026655     
5.824999809265     0.308118999004     0.000000029647     
5.929999828339     0.313253998756     0.000000032214     
6.034999847412     0.318554997444     0.000000034205     
6.139999866486     0.323855996132     0.000000037094     
6.244999885559     0.328992009163     0.000000040985     
6.349999904633     0.334293007851     0.000000044678     
6.454999923706     0.339594006538     0.000000048160     
6.559999942780     0.344729006290     0.000000052388     
6.664999961853     0.350030004978     0.000000056305     
6.769999980927     0.355331003666     0.000000059710     
6.875000000000     0.360466003418     0.000000064439     
6.980000019073     0.365767002106     0.000000069721     
7.085000038147     0.370902001858     0.000000074173     
7.190000057220     0.376203000546     0.000000078621     
7.295000076294     0.381503999233     0.000000083502     
7.400000095367     0.386640012264     0.000000088200     
7.480000019073     0.394757002592     0.000000096924     
7.585000038147     0.400058001280     0.000000102176     
7.690000057220     0.405193001032     0.000000106503     
7.795000076294     0.410659998655     0.000000110999     
7.900000095367     0.415794998407     0.000000116502     
8.005000114441     0.421095997095     0.000000121502     
8.109999656677     0.426396995783     0.000000126081     
8.215000152588     0.431531995535     0.000000131333     
8.319999694824     0.436832994223     0.000000136164     
8.425000190735     0.442133992910     0.000000140030     
8.529999732971     0.447270005941     0.000000144189     
8.635000228882     0.452571004629     0.000000149104     
8.739999771118     0.457872003317     0.000000153390     
8.845000267029     0.463171988726     0.000000157171     
8.949999809265     0.468472987413     0.000000161330     
9.055000305176     0.473609000444     0.000000165238     
9.159999847412     0.478909999132     0.000000168178     
9.265000343323     0.484210997820     0.000000171876     
9.369999885559     0.489511996508     0.000000175951     
9.475000381470     0.494812995195     0.000000179144     
9.579999923706     0.499947994947     0.000000181959     
9.685000419617     0.505249023438     0.000000185530     
9.789999961853     0.510550022125     0.000000188345     
9.895000457764     0.515851020813     0.000000191034     
10.000000000000     0.520986020565     0.000000194437     
10.104999542236     0.526287019253     0.000000198008     
10.210000038147     0.531588017941     0.000000200529     
10.314999580383     0.536889016628     0.000000203049     
10.420000076294     0.542190015316     0.000000206200     
10.524999618530     0.547325015068     0.000000209267     
10.630000114441     0.552626013756     0.000000211872     
10.734999656677     0.557927012444     0.000000215401     
10.840000152588     0.563063025475     0.000000218720     
10.944999694824     0.568529009819     0.000000221031     
11.050000190735     0.573830008507     0.000000223678     
11.154999732971     0.578966021538     0.000000227165     
11.260000228882     0.584267020226     0.000000230400     
11.364999771118     0.589402019978     0.000000233341     
11.470000267029     0.594703018665     0.000000236870     
11.574999809265     0.600004017353     0.000000240021     
11.680000305176     0.605305016041     0.000000242500     
11.784999847412     0.610606014729     0.000000245525     
11.890000343323     0.615741014481     0.000000249516     
11.994999885559     0.621042013168     0.000000252709     
12.100000381470     0.626343011856     0.000000255650     
12.204999923706     0.631644010544     0.000000259263     
12.310000419617     0.636779010296     0.000000262414     
12.414999961853     0.642080008984     0.000000265187     
12.520000457764     0.647381007671     0.000000268758     
12.625000000000     0.652682006359     0.000000272875     
12.729999542236     0.657983005047     0.000000275858     
12.835000038147     0.663284003735     0.000000278757     
12.939999580383     0.668420016766     0.000000282454     
13.045000076294     0.673721015453     0.000000285773     
13.149999618530     0.679021000862     0.000000288966     
13.255000114441     0.684321999550     0.000000292915     
13.359999656677     0.689458012581     0.000000296739     
13.465000152588     0.694759011269     0.000000299511     
13.569999694824     0.700060009956     0.000000302620     
13.675000190735     0.705361008644     0.000000306528     
13.779999732971     0.710496008396     0.000000310057     
13.885000228882     0.715797007084     0.000000313418     
13.989999771118     0.721098005772     0.000000317409     
14.095000267029     0.726399004459     0.000000321022     
14.199999809265     0.731700003147     0.000000323879     
14.305000305176     0.737001001835     0.000000327408     
14.409999847412     0.742136001587     0.000000331525     
14.515000343323     0.747437000275     0.000000335265     
14.619999885559     0.752737998962     0.000000338626     
14.725000381470     0.757872998714     0.000000342617     
14.829999923706     0.763173997402     0.000000346146     
14.935000419617     0.768474996090     0.000000349297     
15.039999961853     0.773775994778     0.000000353204     
15.145000457764     0.779076993465     0.000000357700     
15.250000000000     0.784377992153     0.000000361145     
15.354999542236     0.789514005184     0.000000364590     
15.460000038147     0.794815003872     0.000000368707     
15.564999580383     0.800116002560     0.000000372446     
15.670000076294     0.805417001247     0.000000375849     
15.774999618530     0.810552000999     0.000000380177     
15.880000114441     0.815852999687     0.000000384462     
15.984999656677     0.821153998375     0.000000387907     
16.090000152588     0.826288998127     0.000000391268     
16.194999694824     0.831755995750     0.000000395427     
16.299999237061     0.837056994438     0.000000399250     
16.405000686646     0.842191994190     0.000000402948     
16.510000228882     0.847492992878     0.000000407233     
16.614999771118     0.852627992630     0.000000411224     
16.719999313354     0.857928991318     0.000000414333     
16.825000762939     0.863229990005     0.000000417862     
16.930000305176     0.868530988693     0.000000422148     
17.034999847412     0.873831987381     0.000000425929     
17.139999389648     0.879132986069     0.000000429542     
17.245000839233     0.884268999100     0.000000433575     
17.350000381470     0.889568984509     0.000000437062     
17.454999923706     0.894869983196     0.000000439961     
17.559999465942     0.900170981884     0.000000443448     
17.665000915527     0.905471980572     0.000000447734     
17.770000457764     0.910607993603     0.000000450843     
17.875000000000     0.915908992290     0.000000453994     
17.979999542236     0.921209990978     0.000000457607     
18.084999084473     0.926344990730     0.000000460758     
18.190000534058     0.931645989418     0.000000463447     
18.295000076294     0.936946988106     0.000000466808     
18.399999618530     0.942081987858     0.000000470631     
18.504999160767     0.947382986546     0.000000473404     
18.610000610352     0.952683985233     0.000000475882     
18.715000152588     0.957984983921     0.000000479117     
18.819999694824     0.963285982609     0.000000482142     
18.924999237061     0.968586981297     0.000000484789     
19.030000686646     0.973721981049     0.000000488360     
19.135000228882     0.979022979736     0.000000491679     
19.239999771118     0.984323978424     0.000000493990     
19.344999313354     0.989624977112     0.000000496637     
19.450000762939     0.994925975800     0.000000500166     
19.555000305176     1.000061988831     0.000000503317     
19.659999847412     1.005362987518     0.000000506552     
19.764999389648     1.010663986206     0.000000510123     
19.870000839233     1.015799045563     0.000000513526     
19.975000381470     1.021100044250     0.000000516257     
20.079999923706     1.026401042938     0.000000519618     
20.184999465942     1.031702041626     0.000000524113     
20.290000915527     1.037003040314     0.000000527685     
20.395000457764     1.042304039001     0.000000531424     
20.500000000000     1.047438979149     0.000000535793     
20.604999542236     1.052739977837     0.000000539826     
20.709999084473     1.058040976524     0.000000543692     
20.815000534058     1.063176035881     0.000000548355     
20.920000076294     1.068477034569     0.000000553943     
21.024999618530     1.073778033257     0.000000558522     
21.129999160767     1.079079031944     0.000000563312     
21.235000610352     1.084380030632     0.000000568815     
21.340000152588     1.089516043663     0.000000574445     
21.444999694824     1.094817042351     0.000000579781     
21.549999237061     1.100118041039     0.000000586503     
21.655000686646     1.105417966843     0.000000593183     
21.760000228882     1.110553979874     0.000000599317     
21.864999771118     1.115854978561     0.000000605871     
21.969999313354     1.121155977249     0.000000613601     
22.075000762939     1.126456975937     0.000000621248     
22.180000305176     1.131757974625     0.000000629314     
22.284999847412     1.137058973312     0.000000638389     
22.389999389648     1.142194032669     0.000000647380     
22.495000839233     1.147495031357     0.000000656077     
22.600000381470     1.152796030045     0.000000665656     
22.704999923706     1.158097028732     0.000000676789     
22.809999465942     1.163231968880     0.000000687838     
22.915000915527     1.168532967567     0.000000699308     
23.020000457764     1.173833966255     0.000000712080     
23.125000000000     1.179134964943     0.000000725146     
23.229999542236     1.184270024300     0.000000738338     
23.334999084473     1.189571022987     0.000000752749     
23.440000534058     1.194872021675     0.000000769008     
23.545000076294     1.198186039925     0.000000768420     
23.649999618530     1.193712949753     0.000000716323     
23.754999160767     1.188577055931     0.000000668260     
23.860000610352     1.183277010918     0.000000625071     
23.965000152588     1.177976012230     0.000000585663     
24.069999694824     1.172839999199     0.000000551002     
24.174999237061     1.167539000511     0.000000519576     
24.280000686646     1.162403941154     0.000000490335     
24.385000228882     1.156937003136     0.000000463320     
24.489999771118     1.151801943779     0.000000439415     
24.594999313354     1.146500945091     0.000000417064     
24.700000762939     1.141199946404     0.000000396184     
24.805000305176     1.136065006256     0.000000377698     
24.909999847412     1.130764007568     0.000000360472     
25.014999389648     1.125463008881     0.000000343499     
25.120000839233     1.120326995850     0.000000327996     
25.225000381470     1.115025997162     0.000000314384     
25.329999923706     1.109725952148     0.000000301276     
25.434999465942     1.104424953461     0.000000288798     
25.540000915527     1.099288940430     0.000000277875     
25.645000457764     1.093987941742     0.000000267203     
25.750000000000     1.088686943054     0.000000256448     
25.854999542236     1.083385944366     0.000000246785     
25.959999084473     1.078251004219     0.000000238634     
26.065000534058     1.072950005531     0.000000230190     
26.170000076294     1.067649006844     0.000000222333     
26.274999618530     1.062348008156     0.000000215191     
26.379999160767     1.057212948799     0.000000208217     
26.485000610352     1.051911950111     0.000000200865     
26.590000152588     1.046610951424     0.000000194857     
26.694999694824     1.041309952736     0.000000189605     
26.799999237061     1.036008954048     0.000000183849     
26.905000686646     1.030874013901     0.000000178220     
27.010000228882     1.025573015213     0.000000173388     
27.114999771118     1.020272016525     0.000000168473     
27.219999313354     1.015136003494     0.000000163389     
27.325000762939     1.009835004807     0.000000159524     
27.430000305176     1.004534006119     0.000000155869     
27.534999847412     0.999233007431     0.000000151499     
27.639999389648     0.993932008743     0.000000147088     
27.745000839233     0.988631010056     0.000000143853     
27.850000381470     0.983496010303     0.000000140198     
27.954999923706     0.978195011616     0.000000136627     
28.059999465942     0.972894012928     0.000000133938     
28.165000915527     0.967593014240     0.000000131123     
28.270000457764     0.962458014488     0.000000127552     
28.375000000000     0.957157015800     0.000000124191     
28.479999542236     0.951856017113     0.000000122090     
28.584999084473     0.946555018425     0.000000119233     
28.690000534058     0.941420018673     0.000000116502     
28.795000076294     0.936119019985     0.000000114444     
28.899999618530     0.930818021297     0.000000112091     
29.004999160767     0.925517022610     0.000000109024     
29.110000610352     0.920381009579     0.000000106545     
29.215000152588     0.915080010891     0.000000104865     
29.319999694824     0.909779012203     0.000000102596     
29.424999237061     0.904478013515     0.000000100411     
29.530000686646     0.899178028107     0.000000098563     
29.635000228882     0.893877029419     0.000000096420     
29.739999771118     0.888575971127     0.000000093857     
29.844999313354     0.883440017700     0.000000092051     
29.950000762939     0.878139019012     0.000000090832     
30.055000305176     0.872838020325     0.000000088858     
30.159999847412     0.867537021637     0.000000086673     
30.264999389648     0.862402021885     0.000000085203     
30.370000839233     0.857101023197     0.000000083270     
30.475000381470     0.851800024509     0.000000081043     
30.579999923706     0.846499025822     0.000000079867     
30.684999465942     0.841364026070     0.000000078733     
30.790000915527     0.836063027382     0.000000076758     
30.895000457764     0.830762028694     0.000000074657     
31.000000000000     0.825460970402     0.000000073355     
31.104999542236     0.820159971714     0.000000071758     
31.209999084473     0.815024971962     0.000000069868     
31.315000534058     0.809723973274     0.000000068943     
31.420000076294     0.804422974586     0.000000067641     
31.524999618530     0.799121975899     0.000000065498     
31.629999160767     0.793986022472     0.000000063734     
31.735000610352     0.788685023785     0.000000062600     
31.840000152588     0.783384025097     0.000000061129     
31.944999694824     0.778083026409     0.000000059617     
32.049999237061     0.772782027721     0.000000058482     
32.154998779297     0.767481029034     0.000000057264     
32.259998321533     0.762346029282     0.000000055079     
32.365001678467     0.757044970989     0.000000053399     
32.470001220703     0.751909971237     0.000000052600     
32.575000762939     0.746442973614     0.000000051088     
32.680000305176     0.741307973862     0.000000049575     
32.784999847412     0.736006975174     0.000000048441     
32.889999389648     0.730705976486     0.000000047055     
32.994998931885     0.725404977798     0.000000045038     
33.099998474121     0.720103979111     0.000000043694     
33.205001831055     0.714968979359     0.000000042937     
33.310001373291     0.709667980671     0.000000041467     
33.415000915527     0.704366981983     0.000000039828     
33.520000457764     0.699065983295     0.000000038652     
33.625000000000     0.693929970264     0.000000037308     
33.729999542236     0.688628971577     0.000000035417     
33.834999084473     0.683328986168     0.000000034535     
33.939998626709     0.678027987480     0.000000033905     
34.044998168945     0.672726988792     0.000000032266     
34.115001678467     0.664609014988     0.000000030037     
34.220001220703     0.659308016300     0.000000028831     
34.325000762939     0.654007971287     0.000000028270     
34.430000305176     0.648872017860     0.000000027231     
34.534999847412     0.643405973911     0.000000026188     
34.639999389648     0.638270020485     0.000000025976     
34.744998931885     0.632969021797     0.000000025627     
34.849998474121     0.627834022045     0.000000024497     
34.955001831055     0.622533023357     0.000000023947     
35.060001373291     0.617232024670     0.000000024243     
35.165000915527     0.611931025982     0.000000024015     
35.270000457764     0.606630027294     0.000000023909     
