
Cycle 1
Physical Cycle 1
Step 1

Time (s),          Potential (V),         Current (A)
0.104999996722     0.002805999946     -0.000000320935     
0.209999993443     0.007922000252     -0.000000294190     
0.314999997616     0.013203999959     -0.000000267446     
0.419999986887     0.018485000357     -0.000000244522     
0.449999988079     0.028552999720     -0.000000193110     
0.555000007153     0.033833999187     -0.000000174260     
0.660000026226     0.039115998894     -0.000000156565     
0.764999985695     0.044231999665     -0.000000138485     
0.795000016689     0.054464999586     -0.000000106187     
0.899999976158     0.059746000916     -0.000000090747     
1.004999995232     0.064862996340     -0.000000074592     
1.110000014305     0.070143997669     -0.000000058100     
1.215000033379     0.075425997376     -0.000000041945     
1.320000052452     0.080706998706     -0.000000024864     
1.424999952316     0.085822999477     -0.000000006563     
1.529999971390     0.091269999743     0.000000011906     
1.634999990463     0.096386000514     0.000000032142     
1.740000009537     0.101668000221     0.000000054229     
1.845000028610     0.106949001551     0.000000076863     
1.950000047684     0.112231001258     0.000000101391     
2.055000066757     0.117512002587     0.000000128232     
2.160000085831     0.122792996466     0.000000156588     
2.265000104904     0.127910003066     0.000000185995     
2.369999885559     0.133191004395     0.000000218936     
2.474999904633     0.138473004103     0.000000253392     
2.579999923706     0.143754005432     0.000000289111     
2.684999942780     0.148870006204     0.000000327900     
2.789999961853     0.154152005911     0.000000368540     
2.894999980927     0.159433007240     0.000000410274     
3.000000000000     0.164550006390     0.000000453902     
3.105000019073     0.169830992818     0.000000499170     
3.210000038147     0.175113007426     0.000000545195     
3.315000057220     0.180393993855     0.000000592441     
3.420000076294     0.185675993562     0.000000640864     
3.525000095367     0.190791994333     0.000000688657     
3.630000114441     0.196072995663     0.000000737038     
3.734999895096     0.201354995370     0.000000785883     
3.839999914169     0.206470996141     0.000000833843     
3.944999933243     0.211752995849     0.000000881131     
4.050000190735     0.217033997178     0.000000929218     
4.155000209808     0.222314998507     0.000000976968     
4.260000228882     0.227431997657     0.000001022699     
4.364999771118     0.234364002943     0.000001087109     
4.469999790192     0.239480003715     0.000001131347     
4.574999809265     0.244762003422     0.000001175200     
4.679999828339     0.250043004751     0.000001219439     
4.784999847412     0.255324006081     0.000001262908     
4.889999866486     0.260605990887     0.000001305223     
4.994999885559     0.265886992216     0.000001347153     
5.099999904633     0.271169006824     0.000001388698     
5.204999923706     0.276450008154     0.000001428705     
5.309999942780     0.281731992960     0.000001468712     
5.414999961853     0.287012994289     0.000001508334     
5.519999980927     0.292129009962     0.000001546033     
5.625000000000     0.297410994768     0.000001583347     
5.730000019073     0.302691996098     0.000001621046     
5.835000038147     0.307974010706     0.000001657206     
5.940000057220     0.313255012035     0.000001692981     
6.045000076294     0.318536996841     0.000001728756     
6.150000095367     0.323653012514     0.000001762993     
6.255000114441     0.328934013844     0.000001795691     
6.360000133514     0.334215998650     0.000001829158     
6.465000152588     0.339496999979     0.000001861087     
6.570000171661     0.344779014587     0.000001891861     
6.675000190735     0.350059986115     0.000001923405     
6.780000209808     0.355342000723     0.000001954179     
6.885000228882     0.360623002052     0.000001982646     
6.989999771118     0.365738987923     0.000002011497     
7.094999790192     0.371185988188     0.000002039579     
7.199999809265     0.376466989517     0.000002066122     
7.304999828339     0.381749004126     0.000002092665     
7.409999847412     0.386864989996     0.000002119208     
7.514999866486     0.392147004604     0.000002144212     
7.619999885559     0.397428005934     0.000002169216     
7.724999904633     0.402709990740     0.000002194605     
7.829999923706     0.407990992069     0.000002218455     
7.934999942780     0.413271993399     0.000002241921     
8.039999961853     0.418388992548     0.000002265771     
8.145000457764     0.423669993877     0.000002289237     
8.250000000000     0.428952008486     0.000002311548     
8.354999542236     0.434233009815     0.000002335014     
8.460000038147     0.439514994621     0.000002358095     
8.564999580383     0.444795995951     0.000002380406     
8.670000076294     0.450076997280     0.000002402718     
8.774999618530     0.455359011889     0.000002425414     
8.880000114441     0.460640013218     0.000002446956     
8.984999656677     0.465921998024     0.000002468883     
9.090000152588     0.471202999353     0.000002490809     
9.194999694824     0.476319998503     0.000002512352     
9.300000190735     0.481600999832     0.000002533509     
9.404999732971     0.486882001162     0.000002555051     
9.510000228882     0.492163985968     0.000002575439     
9.614999771118     0.497444987297     0.000002596212     
9.720000267029     0.502726972103     0.000002617370     
9.824999809265     0.508008003235     0.000002636604     
9.930000305176     0.513289988041     0.000002655453     
10.034999847412     0.518571019173     0.000002675456     
10.140000343323     0.523687005043     0.000002694306     
10.244999885559     0.529133975506     0.000002712001     
10.350000381470     0.534250020981     0.000002731235     
10.454999923706     0.539532005787     0.000002749315     
10.560000419617     0.544812977314     0.000002766241     
10.664999961853     0.550095021725     0.000002783167     
10.770000457764     0.555375993252     0.000002800478     
10.875000000000     0.560657978058     0.000002816634     
10.979999542236     0.565939009190     0.000002832791     
11.085000038147     0.571054995060     0.000002848947     
11.189999580383     0.576336979866     0.000002864335     
11.295000076294     0.581618010998     0.000002879722     
11.399999618530     0.587064981461     0.000002894725     
11.505000114441     0.592181026936     0.000002908188     
11.609999656677     0.597463011742     0.000002921652     
11.715000152588     0.602743983269     0.000002935116     
11.819999694824     0.607860028744     0.000002947811     
11.925000190735     0.613306999207     0.000002958966     
12.029999732971     0.618587970734     0.000002970122     
12.135000228882     0.623705029488     0.000002980124     
12.239999771118     0.629150986671     0.000002988202     
12.345000267029     0.634267985821     0.000002996280     
12.449999809265     0.639549016953     0.000003002820     
12.555000305176     0.644829988480     0.000003007436     
12.659999847412     0.650111973286     0.000003011283     
12.765000343323     0.655393004417     0.000003013976     
12.869999885559     0.660674989223     0.000003014360     
12.975000381470     0.665956020355     0.000003013591     
13.079999923706     0.671238005161     0.000003012052     
13.185000419617     0.676518976688     0.000003008205     
13.289999961853     0.681635022163     0.000003003974     
13.395000457764     0.687081992626     0.000002998204     
13.500000000000     0.692197978497     0.000002990895     
13.604999542236     0.697480022907     0.000002982816     
13.710000038147     0.702760994434     0.000002974353     
13.814999580383     0.708042979240     0.000002963967     
13.920000076294     0.713324010372     0.000002953196     
14.024999618530     0.718604981899     0.000002942040     
14.130000114441     0.723887026310     0.000002930885     
14.234999656677     0.729167997837     0.000002918575     
14.340000152588     0.734449982643     0.000002907419     
14.444999694824     0.739731013775     0.000002895879     
14.550000190735     0.745012998581     0.000002883953     
14.654999732971     0.750294029713     0.000002872798     
14.760000228882     0.755576014519     0.000002862027     
14.864999771118     0.760692000389     0.000002851256     
14.970000267029     0.765972971916     0.000002841254     
15.074999809265     0.771255016327     0.000002832406     
15.180000305176     0.776535987854     0.000002824328     
15.284999847412     0.781817972660     0.000002816634     
15.390000343323     0.787099003792     0.000002810864     
15.494999885559     0.792380988598     0.000002805094     
15.600000381470     0.797662019730     0.000002800093     
15.704999923706     0.802778005600     0.000002796631     
15.810000419617     0.808059990406     0.000002793553     
15.914999961853     0.813341021538     0.000002791245     
16.020000457764     0.818623006344     0.000002791245     
16.125000000000     0.823903977871     0.000002792399     
16.229999542236     0.829186022282     0.000002792784     
16.334999084473     0.834466993809     0.000002795092     
16.440000534058     0.839748024940     0.000002798939     
16.545000076294     0.845030009747     0.000002802401     
16.649999618530     0.850310981274     0.000002807017     
16.754999160767     0.855593025684     0.000002813557     
16.860000610352     0.860873997211     0.000002820096     
16.965000152588     0.865990996361     0.000002827790     
17.069999694824     0.871272027493     0.000002836638     
17.174999237061     0.876552999020     0.000002845485     
17.280000686646     0.881834983826     0.000002855487     
17.385000228882     0.887116014957     0.000002866643     
17.489999771118     0.892397999763     0.000002877414     
17.594999313354     0.897678971291     0.000002888954     
17.700000762939     0.902961015701     0.000002902803     
17.805000305176     0.908241987228     0.000002915882     
17.909999847412     0.913523972034     0.000002928961     
18.014999389648     0.918805003166     0.000002943964     
18.120000839233     0.923920989037     0.000002960120     
18.225000381470     0.929202973843     0.000002975508     
18.329999923706     0.934484004974     0.000002991664     
18.434999465942     0.939765989780     0.000003009359     
18.540000915527     0.945047020912     0.000003027439     
18.645000457764     0.950329005718     0.000003046289     
18.750000000000     0.955609977245     0.000003066292     
18.854999542236     0.960891008377     0.000003085911     
18.959999084473     0.966172993183     0.000003107068     
19.065000534058     0.971288979053     0.000003129380     
19.170000076294     0.976571023464     0.000003151307     
19.274999618530     0.981851994991     0.000003174388     
19.379999160767     0.987133979797     0.000003199777     
19.485000610352     0.992415010929     0.000003224781     
19.590000152588     0.997695982456     0.000003250554     
19.694999694824     1.002977967262     0.000003278251     
19.799999237061     1.008259057999     0.000003307872     
19.905000686646     1.013540983200     0.000003336723     
20.010000228882     1.018656969070     0.000003366728     
20.114999771118     1.023939013481     0.000003399426     
20.219999313354     1.029219985008     0.000003432509     
20.325000762939     1.034500956535     0.000003467899     
20.430000305176     1.039783000946     0.000003504829     
20.534999847412     1.045063972473     0.000003542527     
20.639999389648     1.050346016884     0.000003582149     
20.745000839233     1.055626988411     0.000003624080     
20.850000381470     1.060909032822     0.000003665625     
20.954999923706     1.066025018692     0.000003709864     
21.059999465942     1.071305990219     0.000003757179     
21.165000915527     1.076588034630     0.000003804880     
21.270000457764     1.081869006157     0.000003854888     
21.375000000000     1.087151050568     0.000003906436     
21.479999542236     1.092432022095     0.000003961060     
21.584999084473     1.097713947296     0.000004015685     
21.690000534058     1.102830052376     0.000004073002     
21.795000076294     1.108111023903     0.000004133013     
21.899999618530     1.113392949104     0.000004194177     
22.004999160767     1.118674039841     0.000004257649     
22.110000610352     1.123955965042     0.000004324199     
22.215000152588     1.129237055779     0.000004390749     
22.319999694824     1.134518980980     0.000004460376     
22.424999237061     1.139799952507     0.000004531927     
22.530000686646     1.144916057587     0.000004604247     
22.635000228882     1.150197982788     0.000004679644     
22.739999771118     1.155478954315     0.000004758119     
22.844999313354     1.160925984383     0.000004837364     
22.950000762939     1.166041970253     0.000004918147     
23.055000305176     1.171324014664     0.000005001622     
23.159999847412     1.176604986191     0.000005087406     
23.264999389648     1.181887030602     0.000005173575     
23.370000839233     1.187168002129     0.000005262051     
23.475000381470     1.192283987999     0.000005353605     
23.579999923706     1.197566032410     0.000005443236     
23.684999465942     1.196740984917     0.000005237816     
23.790000915527     1.191624045372     0.000004878140     
23.895000457764     1.186342954636     0.000004555777     
24.000000000000     1.181061029434     0.000004264958     
24.104999542236     1.175780057907     0.000004000298     
24.209999084473     1.170498013496     0.000003757949     
24.315000534058     1.165382027626     0.000003535988     
24.420000076294     1.159935951233     0.000003334030     
24.524999618530     1.154819011688     0.000003147460     
24.629999160767     1.149538040161     0.000002975123     
24.735000610352     1.144255995750     0.000002817788     
24.840000152588     1.138975024223     0.000002672379     
24.944999694824     1.133857965469     0.000002536587     
25.049999237061     1.128576993942     0.000002411950     
25.155000686646     1.123296022415     0.000002296930     
25.260000228882     1.118013978004     0.000002189220     
25.364999771118     1.112733006477     0.000002089972     
25.469999313354     1.107450962067     0.000001998033     
25.575000762939     1.102169990540     0.000001911865     
25.680000305176     1.096887946129     0.000001832236     
25.784999847412     1.091771960258     0.000001758762     
25.889999389648     1.086490988731     0.000001689519     
25.995000839233     1.081208944321     0.000001624893     
26.100000381470     1.075927972794     0.000001566036     
26.204999923706     1.070646047592     0.000001510258     
26.309999465942     1.065364956856     0.000001457556     
26.415000915527     1.060083031654     0.000001409856     
26.520000457764     1.054801940918     0.000001365233     
26.625000000000     1.049685955048     0.000001322149     
26.729999542236     1.044404029846     0.000001282911     
26.834999084473     1.039123058319     0.000001245982     
26.940000534058     1.033841013908     0.000001210976     
27.045000076294     1.028560042381     0.000001179047     
27.149999618530     1.023277997971     0.000001149042     
27.254999160767     1.017997026443     0.000001120191     
27.360000610352     1.012716054916     0.000001093263     
27.465000152588     1.007598996162     0.000001068644     
27.569999694824     1.002318024635     0.000001044024     
27.674999237061     0.997035980225     0.000001021328     
27.780000686646     0.991755008698     0.000001000555     
27.885000228882     0.986473023891     0.000000980552     
27.989999771118     0.981191992760     0.000000960933     
28.094999313354     0.975910007954     0.000000943238     
28.200000762939     0.970628976822     0.000000926312     
28.305000305176     0.965512990952     0.000000909386     
28.409999847412     0.960231006145     0.000000893999     
28.514999389648     0.954949975014     0.000000878996     
28.620000839233     0.949667990208     0.000000864378     
28.725000381470     0.944387018681     0.000000850530     
28.829999923706     0.939104974270     0.000000837451     
28.934999465942     0.933824002743     0.000000824371     
29.040000915527     0.928542971611     0.000000812062     
29.145000457764     0.923260986805     0.000000800906     
29.250000000000     0.917980015278     0.000000788981     
29.354999542236     0.912863016129     0.000000777440     
29.459999084473     0.907581984997     0.000000767054     
29.565000534058     0.902300000191     0.000000756668     
29.670000076294     0.897019028664     0.000000745512     
29.774999618530     0.891737997532     0.000000736279     
29.879999160767     0.886456012726     0.000000727047     
29.985000610352     0.881174981594     0.000000717045     
30.090000152588     0.875892996788     0.000000707428     
30.194999694824     0.870612025261     0.000000698581     
30.299999237061     0.865329980850     0.000000689348     
30.405000686646     0.860049009323     0.000000680501     
30.510000228882     0.854767978191     0.000000672422     
30.614999771118     0.849485993385     0.000000663190     
30.719999313354     0.844370007515     0.000000654727     
30.825000762939     0.839088022709     0.000000647418     
30.930000305176     0.833806991577     0.000000638570     
31.034999847412     0.828525006771     0.000000629723     
31.139999389648     0.823243975639     0.000000622414     
31.245000839233     0.818127989769     0.000000614720     
31.350000381470     0.812846004963     0.000000605488     
31.454999923706     0.807399988174     0.000000598179     
31.559999465942     0.802282989025     0.000000590870     
31.665000915527     0.797002017498     0.000000582022     
31.770000457764     0.791554987431     0.000000574329     
31.875000000000     0.786439001560     0.000000567020     
31.979999542236     0.781157970428     0.000000558557     
32.084999084473     0.775875985622     0.000000550479     
32.189998626709     0.770595014095     0.000000543554     
32.294998168945     0.765313029289     0.000000534707     
32.400001525879     0.760031998158     0.000000527013     
32.505001068115     0.754914999008     0.000000520089     
32.610000610352     0.749634027481     0.000000511626     
32.715000152588     0.744351983070     0.000000503547     
32.819999694824     0.739071011543     0.000000496238     
32.924999237061     0.733789980412     0.000000488545     
33.029998779297     0.728507995605     0.000000479697     
33.134998321533     0.723227024078     0.000000472004     
33.240001678467     0.717944979668     0.000000463925     
33.345001220703     0.712664008141     0.000000455847     
33.450000762939     0.707382023335     0.000000447384     
33.555000305176     0.702265977859     0.000000439690     
33.659999847412     0.696985006332     0.000000431227     
33.764999389648     0.691537976265     0.000000422764     
33.869998931885     0.686421990395     0.000000415455     
33.974998474121     0.681140005589     0.000000406608     
34.080001831055     0.675858974457     0.000000398145     
34.185001373291     0.670576989651     0.000000390836     
34.290000915527     0.665296018124     0.000000381604     
34.395000457764     0.660014986992     0.000000372371     
34.500000000000     0.654733002186     0.000000364678     
34.604999542236     0.649451971054     0.000000356599     
34.709999084473     0.644334971905     0.000000346982     
34.764999389648     0.635258018970     0.000000333201     
34.869998931885     0.630141019821     0.000000325039     
34.974998474121     0.624695003033     0.000000317003     
35.080001831055     0.619413971901     0.000000308084     
35.185001373291     0.614131987095     0.000000298997     
35.290000915527     0.609016001225     0.000000291046     
