
Cycle 1
Physical Cycle 1
Step 1

Time (s),          Potential (V),         Current (A)
0.104999996722     0.001818999997     -0.000001475213     
0.209999993443     0.007110000122     -0.000001406598     
0.314999997616     0.012236000039     -0.000001345608     
0.419999986887     0.017526999116     -0.000001288429     
0.449999988079     0.027613999322     -0.000001283000     
0.555000007153     0.032905001193     -0.000001236164     
0.660000026226     0.038196001202     -0.000001191248     
0.764999985695     0.043487001210     -0.000001149019     
0.870000004768     0.048778001219     -0.000001108325     
0.975000023842     0.054069999605     -0.000001068783     
1.080000042915     0.059360999614     -0.000001030777     
1.184999942780     0.064487002790     -0.000000994690     
1.289999961853     0.069778002799     -0.000000958987     
1.394999980927     0.075069002807     -0.000000924052     
1.500000000000     0.080360002816     -0.000000891420     
1.605000019073     0.085486002266     -0.000000858789     
1.710000038147     0.090777002275     -0.000000826157     
1.815000057220     0.096069000661     -0.000000795829     
1.919999957085     0.101360000670     -0.000000765884     
2.025000095367     0.106651000679     -0.000000735940     
2.130000114441     0.111942000687     -0.000000707147     
2.234999895096     0.117068000138     -0.000000679890     
2.339999914169     0.122359000146     -0.000000652633     
2.444999933243     0.127651005983     -0.000000624992     
2.549999952316     0.132942005992     -0.000000599655     
2.654999971390     0.138233006001     -0.000000574701     
2.759999990463     0.143359005451     -0.000000549364     
2.865000009537     0.148815006018     -0.000000525178     
2.970000028610     0.154107004404     -0.000000502528     
3.075000047684     0.159233003855     -0.000000479110     
3.180000066757     0.164524003863     -0.000000456459     
3.285000085831     0.169815003872     -0.000000435345     
3.390000104904     0.175106003881     -0.000000414614     
3.494999885559     0.180232003331     -0.000000393500     
3.599999904633     0.185523003340     -0.000000373921     
3.704999923706     0.190814003348     -0.000000355109     
3.809999942780     0.196106001735     -0.000000335530     
3.914999961853     0.201397001743     -0.000000317103     
4.019999980927     0.206688001752     -0.000000300211     
4.125000000000     0.213137000799     -0.000000288227     
4.230000019073     0.218263000250     -0.000000271440     
4.335000038147     0.223554000258     -0.000000255954     
4.440000057220     0.228845000267     -0.000000241098     
4.545000076294     0.234136000276     -0.000000225570     
4.650000095367     0.239261999726     -0.000000211386     
4.755000114441     0.244552999735     -0.000000198124     
4.860000133514     0.249844998121     -0.000000184401     
4.965000152588     0.255136013031     -0.000000171224     
5.070000171661     0.260262012482     -0.000000159641     
5.175000190735     0.265718013048     -0.000000147932     
5.280000209808     0.270844012499     -0.000000135972     
5.385000228882     0.276134997606     -0.000000125270     
5.489999771118     0.281426995993     -0.000000115282     
5.594999790192     0.286718010902     -0.000000104875     
5.699999809265     0.291844010353     -0.000000094928     
5.804999828339     0.297134995461     -0.000000086409     
5.909999847412     0.302426010370     -0.000000077554     
6.014999866486     0.307716995478     -0.000000068406     
6.119999885559     0.313008010387     -0.000000060768     
6.224999904633     0.318134009838     -0.000000053382     
6.329999923706     0.323426008224     -0.000000045072     
6.434999942780     0.328716993332     -0.000000037938     
6.539999961853     0.334008008242     -0.000000031265     
6.644999980927     0.339298993349     -0.000000024173     
6.750000000000     0.344590008259     -0.000000017080     
6.855000019073     0.349716007710     -0.000000011121     
6.934999942780     0.357322007418     -0.000000002678     
7.039999961853     0.362614005804     0.000000003521     
7.144999980927     0.367740005255     0.000000009189     
7.250000000000     0.373030990362     0.000000015594     
7.355000019073     0.378156989813     0.000000022174     
7.460000038147     0.383448004723     0.000000027904     
7.565000057220     0.388738989830     0.000000033954     
7.670000076294     0.393864989281     0.000000040858     
7.775000095367     0.399156004190     0.000000047133     
7.880000114441     0.404282003641     0.000000053401     
7.985000133514     0.409572988749     0.000000060496     
8.090000152588     0.414698988199     0.000000067542     
8.194999694824     0.419990003109     0.000000073851     
8.300000190735     0.425116002560     0.000000081316     
8.350000381470     0.434706002474     0.000000097404     
8.454999923706     0.439998000860     0.000000105000     
8.560000419617     0.445124000311     0.000000112303     
8.664999961853     0.450580000877     0.000000120570     
8.770000457764     0.455706000328     0.000000129425     
8.875000000000     0.460996985435     0.000000137483     
8.979999542236     0.466288000345     0.000000145750     
9.085000038147     0.471579998732     0.000000155318     
9.189999580383     0.476871013641     0.000000163964     
9.295000076294     0.481997013092     0.000000172273     
9.399999618530     0.487287998199     0.000000181715     
9.505000114441     0.492579013109     0.000000190948     
9.609999656677     0.497869998217     0.000000199048     
9.715000152588     0.503162026405     0.000000207819     
9.819999694824     0.508287012577     0.000000217009     
9.925000190735     0.513579010963     0.000000225570     
10.029999732971     0.518869996071     0.000000233460     
10.135000228882     0.524160981178     0.000000242063     
10.239999771118     0.529452025890     0.000000250289     
10.345000267029     0.534744024277     0.000000257591     
10.449999809265     0.539869010448     0.000000265061     
10.555000305176     0.545161008835     0.000000272699     
10.659999847412     0.550451993942     0.000000279204     
10.765000343323     0.555742979050     0.000000285499     
10.869999885559     0.561034023762     0.000000292633     
10.975000381470     0.566325008869     0.000000298634     
11.079999923706     0.571451008320     0.000000303964     
11.185000419617     0.576743006706     0.000000309797     
11.289999961853     0.582033991814     0.000000315547     
11.395000457764     0.587159991264     0.000000319869     
11.500000000000     0.592450976372     0.000000324821     
11.604999542236     0.597742021084     0.000000330067     
11.710000038147     0.603033006191     0.000000334180     
11.814999580383     0.608323991299     0.000000338335     
11.920000076294     0.613615989685     0.000000343035     
12.024999618530     0.618906974792     0.000000347232     
12.130000114441     0.624032974243     0.000000350799     
12.234999656677     0.629324018955     0.000000354870     
12.340000152588     0.634615004063     0.000000359402     
12.444999694824     0.639905989170     0.000000362675     
12.550000190735     0.645197987556     0.000000366033     
12.654999732971     0.650323987007     0.000000370649     
12.760000228882     0.655780017376     0.000000374300     
12.864999771118     0.660906016827     0.000000377448     
12.970000267029     0.666197001934     0.000000381560     
13.074999809265     0.671653985977     0.000000385673     
13.180000305176     0.676779985428     0.000000388443     
13.284999847412     0.682070970535     0.000000392094     
13.390000343323     0.687362015247     0.000000396333     
13.494999885559     0.692653000355     0.000000399564     
13.600000381470     0.697778999805     0.000000402670     
13.704999923706     0.703069984913     0.000000406908     
13.810000419617     0.708361983299     0.000000410937     
13.914999961853     0.713653028011     0.000000414042     
14.020000457764     0.718944013119     0.000000417945     
14.125000000000     0.724234998226     0.000000422226     
14.229999542236     0.729360997677     0.000000425625     
14.335000038147     0.734817981720     0.000000429402     
14.439999580383     0.739943027496     0.000000434061     
14.545000076294     0.745235025883     0.000000437921     
14.649999618530     0.750526010990     0.000000441573     
14.755000114441     0.755816996098     0.000000445895     
14.859999656677     0.761107981205     0.000000450428     
14.965000152588     0.766233980656     0.000000454163     
15.069999694824     0.771525025368     0.000000458569     
15.175000190735     0.776651024818     0.000000463269     
15.279999732971     0.782108008862     0.000000467172     
15.385000228882     0.787398993969     0.000000471453     
15.489999771118     0.792524993420     0.000000476615     
15.595000267029     0.797815978527     0.000000481357     
15.699999809265     0.803107023239     0.000000485470     
15.805000305176     0.808399021626     0.000000490464     
15.909999847412     0.813690006733     0.000000495584     
16.014999389648     0.818816006184     0.000000500116     
16.120000839233     0.824106991291     0.000000505194     
16.225000381470     0.829397976398     0.000000511111     
16.329999923706     0.834689021111     0.000000515937     
16.434999465942     0.839981019497     0.000000521225     
16.540000915527     0.845272004604     0.000000527478     
16.645000457764     0.850562989712     0.000000533605     
16.750000000000     0.855688989162     0.000000538725     
16.854999542236     0.860979974270     0.000000544936     
16.959999084473     0.866271018982     0.000000551231     
17.065000534058     0.871562004089     0.000000557316     
17.170000076294     0.876854002476     0.000000563234     
17.274999618530     0.882144987583     0.000000570452     
17.379999160767     0.887270987034     0.000000576999     
17.485000610352     0.892561972141     0.000000583671     
17.590000152588     0.897853016853     0.000000590764     
17.694999694824     0.903144001961     0.000000598192     
17.799999237061     0.908270001411     0.000000604865     
17.905000686646     0.913561999798     0.000000612670     
18.010000228882     0.918852984905     0.000000620728     
18.114999771118     0.924144029617     0.000000628114     
18.219999313354     0.929435014725     0.000000635794     
18.325000762939     0.934561014175     0.000000645069     
18.430000305176     0.939851999283     0.000000653336     
18.534999847412     0.945142984390     0.000000661352     
18.639999389648     0.950434982777     0.000000669997     
18.745000839233     0.955726027489     0.000000679481     
18.850000381470     0.961017012596     0.000000688000     
18.954999923706     0.966143012047     0.000000697191     
19.059999465942     0.971433997154     0.000000707305     
19.165000915527     0.976724982262     0.000000716873     
19.270000457764     0.981850981712     0.000000725854     
19.375000000000     0.987308025360     0.000000736430     
19.479999542236     0.992434024811     0.000000746922     
19.584999084473     0.997725009918     0.000000757875     
19.690000534058     1.003015995026     0.000000770759     
19.795000076294     1.008306980133     0.000000787293     
19.899999618530     1.013599038124     0.000000807773     
20.004999160767     1.018723964691     0.000000835513     
20.110000610352     1.024016022682     0.000000872779     
20.215000152588     1.029307007790     0.000000918019     
20.319999694824     1.034433007240     0.000000968086     
20.434999465942     1.046007037163     0.000001091817     
20.540000915527     1.051298022270     0.000001142492     
20.645000457764     1.056589961052     0.000001193167     
20.750000000000     1.061880946159     0.000001245378     
20.854999542236     1.067172050476     0.000001299892     
20.959999084473     1.072463035583     0.000001355174     
21.065000534058     1.077589035034     0.000001407769     
21.170000076294     1.082880020142     0.000001456524     
21.274999618530     1.088171958923     0.000001500289     
21.379999160767     1.093462944031     0.000001537911     
21.485000610352     1.098588943481     0.000001569775     
21.590000152588     1.104045033455     0.000001598568     
21.694999694824     1.109171032906     0.000001623138     
21.799999237061     1.114462018013     0.000001642717     
21.905000686646     1.119753956795     0.000001659992     
22.010000228882     1.124879002571     0.000001675348     
22.114999771118     1.130336046219     0.000001686481     
22.219999313354     1.135627031326     0.000001696463     
22.325000762939     1.140753030777     0.000001706060     
22.430000305176     1.146044015884     0.000001714506     
22.534999847412     1.151335954666     0.000001721800     
22.639999389648     1.156627058983     0.000001730246     
22.745000839233     1.161753058434     0.000001738692     
22.850000381470     1.167044043541     0.000001747138     
22.954999923706     1.172500014305     0.000001756736     
23.059999465942     1.177626013756     0.000001767869     
23.165000915527     1.182916998863     0.000001778618     
23.270000457764     1.188209056854     0.000001790519     
23.375000000000     1.193500041962     0.000001804339     
23.479999542236     1.197798967361     0.000001803572     
23.584999084473     1.194326996803     0.000001703373     
23.690000534058     1.189035058022     0.000001603943     
23.795000076294     1.183743953705     0.000001514877     
23.899999618530     1.178617954254     0.000001432722     
24.004999160767     1.173326969147     0.000001357861     
24.110000610352     1.168200969696     0.000001289527     
24.215000152588     1.162909984589     0.000001225031     
24.319999694824     1.157618999481     0.000001165143     
24.424999237061     1.152328014374     0.000001109861     
24.530000686646     1.147035956383     0.000001058418     
24.635000228882     1.141744971275     0.000001008894     
24.739999771118     1.136453986168     0.000000963594     
24.844999313354     1.131327986717     0.000000921749     
24.950000762939     1.126037001610     0.000000881055     
25.055000305176     1.120746016502     0.000000843049     
25.159999847412     1.115453958511     0.000000808114     
25.264999389648     1.110162973404     0.000000775098     
25.370000839233     1.105036973953     0.000000743234     
25.475000381470     1.099581003189     0.000000713674     
25.579999923706     1.094455003738     0.000000686033     
25.684999465942     1.089164018631     0.000000658776     
25.790000915527     1.083873033524     0.000000633822     
25.895000457764     1.078580975533     0.000000610020     
26.000000000000     1.073289990425     0.000000586986     
26.104999542236     1.067999005318     0.000000564720     
26.209999084473     1.062873005867     0.000000543605     
26.315000534058     1.057582020760     0.000000523258     
26.420000076294     1.052291035652     0.000000503679     
26.524999618530     1.046998977661     0.000000484100     
26.629999160767     1.041707992554     0.000000466057     
26.735000610352     1.036417007446     0.000000447246     
26.840000152588     1.031291007996     0.000000428819     
26.944999694824     1.026000022888     0.000000411927     
27.049999237061     1.020709037781     0.000000394651     
27.155000686646     1.015416979790     0.000000376608     
27.260000228882     1.010292053223     0.000000360100     
27.364999771118     1.004999995232     0.000000342824     
27.469999313354     0.999709010124     0.000000325549     
27.575000762939     0.994418025017     0.000000307889     
27.674999237061     0.987639009953     0.000000277525     
27.780000686646     0.982513010502     0.000000260487     
27.885000228882     0.977221012115     0.000000244162     
27.989999771118     0.971930027008     0.000000227669     
28.094999313354     0.966638982296     0.000000211050     
28.200000762939     0.961512982845     0.000000195313     
28.305000305176     0.956221997738     0.000000180498     
28.409999847412     0.950931012630     0.000000165013     
28.514999389648     0.945640027523     0.000000150156     
28.620000839233     0.940348029137     0.000000136643     
28.725000381470     0.935056984425     0.000000123298     
28.829999923706     0.929930984974     0.000000109743     
28.934999465942     0.924639999866     0.000000097279     
29.040000915527     0.919349014759     0.000000085360     
29.145000457764     0.914058029652     0.000000072854     
29.250000000000     0.908931970596     0.000000060516     
29.354999542236     0.903639972210     0.000000049605     
29.459999084473     0.898348987103     0.000000038106     
29.565000534058     0.893058001995     0.000000025935     
29.670000076294     0.887767016888     0.000000014772     
29.774999618530     0.882475972176     0.000000003903     
29.879999160767     0.877349972725     -0.000000007890     
29.969999313354     0.870405018330     -0.000000023155     
30.075000762939     0.865279018879     -0.000000034858     
30.180000305176     0.859987974167     -0.000000046123     
30.284999847412     0.854861974716     -0.000000058543     
30.389999389648     0.849570989609     -0.000000071398     
30.405000686646     0.838491976261     -0.000000101727     
30.510000228882     0.833200991154     -0.000000113855     
30.614999771118     0.828074991703     -0.000000126991     
30.719999313354     0.822784006596     -0.000000141427     
30.825000762939     0.817493021488     -0.000000155402     
30.930000305176     0.812201976776     -0.000000168496     
31.034999847412     0.806909978390     -0.000000183142     
31.139999389648     0.801784992218     -0.000000197789     
31.245000839233     0.796492993832     -0.000000211260     
31.350000381470     0.791202008724     -0.000000224479     
31.454999923706     0.785911023617     -0.000000238706     
31.559999465942     0.780619978905     -0.000000252093     
31.665000915527     0.775493979454     -0.000000264809     
31.770000457764     0.770202994347     -0.000000278322     
31.875000000000     0.764910995960     -0.000000291500     
31.979999542236     0.759620010853     -0.000000303293     
32.084999084473     0.754329025745     -0.000000315673     
32.189998626709     0.749203026295     -0.000000328389     
32.294998168945     0.743911981583     -0.000000340433     
32.400001525879     0.738620996475     -0.000000352100     
32.505001068115     0.733328998089     -0.000000364606     
32.610000610352     0.728204011917     -0.000000376147     
32.715000152588     0.722912013531     -0.000000387352     
32.819999694824     0.717621028423     -0.000000399480     
32.924999237061     0.712329983711     -0.000000411608     
33.029998779297     0.707038998604     -0.000000421974     
33.134998321533     0.701748013496     -0.000000432802     
33.240001678467     0.696622014046     -0.000000443923     
33.345001220703     0.691330015659     -0.000000453491     
33.450000762939     0.686038970947     -0.000000461842     
33.555000305176     0.680747985840     -0.000000470152     
33.659999847412     0.675457000732     -0.000000476321     
33.764999389648     0.670166015625     -0.000000479301     
33.869998931885     0.664874017239     -0.000000480434     
33.974998474121     0.659582972527     -0.000000478797     
34.080001831055     0.654456973076     -0.000000472544     
34.185001373291     0.649165987968     -0.000000462304     
34.290000915527     0.643709003925     -0.000000448623     
34.395000457764     0.638584017754     -0.000000430703     
34.500000000000     0.633292019367     -0.000000409300     
34.604999542236     0.628000974655     -0.000000386093     
34.709999084473     0.622709989548     -0.000000361836     
34.814998626709     0.617419004440     -0.000000336530     
34.919998168945     0.612128019333     -0.000000312693     
35.025001525879     0.606836020947     -0.000000291500     
35.130001068115     0.601544976234     -0.000000271440     
