
Cycle 1
Physical Cycle 1
Step 1

Time (s),          Potential (V),         Current (A)
0.104999996722     0.001654000022     -0.000000686146     
0.209999993443     0.007110000122     -0.000000640403     
0.314999997616     0.012236000039     -0.000000598471     
0.419999986887     0.017526999116     -0.000000560352     
0.449999988079     0.027613999322     -0.000000581228     
0.555000007153     0.032905001193     -0.000000553203     
0.660000026226     0.038031000644     -0.000000526330     
0.764999985695     0.043487001210     -0.000000501376     
0.870000004768     0.048613000661     -0.000000478726     
0.975000023842     0.053904000670     -0.000000456076     
1.080000042915     0.059195000678     -0.000000434193     
1.184999942780     0.064487002790     -0.000000414998     
1.289999961853     0.069778002799     -0.000000396187     
1.394999980927     0.075069002807     -0.000000377760     
1.500000000000     0.080195002258     -0.000000360868     
1.605000019073     0.085486002266     -0.000000344360     
1.710000038147     0.090777002275     -0.000000328620     
1.815000057220     0.096069000661     -0.000000313264     
1.914999961853     0.102683000267     -0.000000303335     
2.019999980927     0.107974000275     -0.000000288982     
2.125000000000     0.113265000284     -0.000000275888     
2.230000019073     0.118556000292     -0.000000263382     
2.335000038147     0.123847998679     -0.000000250583     
2.440000057220     0.128973007202     -0.000000237951     
2.545000076294     0.134265005589     -0.000000226494     
2.650000095367     0.139556005597     -0.000000214743     
2.755000114441     0.144847005606     -0.000000202992     
2.859999895096     0.149973005056     -0.000000192417     
2.964999914169     0.155264005065     -0.000000182051     
3.069999933243     0.160555005074     -0.000000171056     
3.174999952316     0.165847003460     -0.000000160900     
3.279999971390     0.171138003469     -0.000000151248     
3.384999990463     0.176429003477     -0.000000141134     
3.490000009537     0.181555002928     -0.000000131272     
3.595000028610     0.186846002936     -0.000000122375     
3.700000047684     0.192137002945     -0.000000113268     
3.805000066757     0.197428002954     -0.000000103238     
3.910000085831     0.202720001340     -0.000000094215     
4.014999866486     0.207846000791     -0.000000085822     
4.119999885559     0.213137000799     -0.000000076505     
4.224999904633     0.218428000808     -0.000000067608     
4.329999923706     0.223719000816     -0.000000059760     
4.434999942780     0.229010000825     -0.000000051241     
4.539999961853     0.234136000276     -0.000000042092     
4.644999980927     0.239427998662     -0.000000034119     
4.750000000000     0.244718998671     -0.000000026481     
4.855000019073     0.250010013580     -0.000000017878     
4.960000038147     0.255136013031     -0.000000009484     
5.065000057220     0.260592013597     -0.000000002140     
5.170000076294     0.266710013151     0.000000006126     
5.275000095367     0.271836012602     0.000000014686     
5.380000114441     0.277126997709     0.000000022155     
5.485000133514     0.282418996096     0.000000029399     
5.590000152588     0.287544995546     0.000000037532     
5.695000171661     0.292670011520     0.000000045524     
5.800000190735     0.297962009907     0.000000052729     
5.905000209808     0.303086996078     0.000000060603     
6.010000228882     0.308378994465     0.000000068961     
6.114999771118     0.313670009375     0.000000076304     
6.219999790192     0.318796008825     0.000000083903     
6.304999828339     0.326566994190     0.000000098831     
6.409999847412     0.331858009100     0.000000106301     
6.514999866486     0.337150007486     0.000000113897     
6.619999885559     0.342440992594     0.000000122584     
6.724999904633     0.347566992044     0.000000130978     
6.829999923706     0.352858006954     0.000000138742     
6.934999942780     0.358148992062     0.000000147638     
7.039999961853     0.363440006971     0.000000156997     
7.144999980927     0.368732005358     0.000000165306     
7.250000000000     0.374022990465     0.000000173826     
7.355000019073     0.379314005375     0.000000183394     
7.460000038147     0.384440004826     0.000000192837     
7.565000057220     0.389730989933     0.000000201985     
7.670000076294     0.395022004843     0.000000211721     
7.775000095367     0.400314003229     0.000000221835     
7.880000114441     0.405604988337     0.000000231530     
7.985000133514     0.410896003246     0.000000240972     
8.090000152588     0.416022002697     0.000000251967     
8.194999694824     0.421312987804     0.000000262081     
8.300000190735     0.426604002714     0.000000272489     
8.404999732971     0.431896001101     0.000000283484     
8.510000228882     0.437020987272     0.000000294899     
8.614999771118     0.442312985659     0.000000305475     
8.720000267029     0.447604000568     0.000000316932     
8.824999809265     0.452894985676     0.000000329186     
8.930000305176     0.458020985126     0.000000340727     
9.034999847412     0.463312000036     0.000000352142     
9.140000343323     0.468602985144     0.000000364732     
9.244999885559     0.473895013332     0.000000377280     
9.350000381470     0.479019999504     0.000000388988     
9.454999923706     0.484311997890     0.000000401872     
9.560000419617     0.489767998457     0.000000415218     
9.664999961853     0.494893997908     0.000000428017     
9.770000457764     0.500185012817     0.000000440523     
9.875000000000     0.505475997925     0.000000454246     
9.979999542236     0.510767996311     0.000000467886     
10.085000038147     0.515893995762     0.000000480769     
10.189999580383     0.521184980869     0.000000494744     
10.295000076294     0.526476025581     0.000000508467     
10.399999618530     0.531767010689     0.000000522106     
10.505000114441     0.537057995796     0.000000535662     
10.609999656677     0.542183995247     0.000000550392     
10.715000152588     0.547475993633     0.000000564409     
10.819999694824     0.552766978741     0.000000577880     
10.925000190735     0.558058023453     0.000000592065     
11.029999732971     0.563349008560     0.000000606459     
11.135000228882     0.568475008011     0.000000620057     
11.239999771118     0.573765993118     0.000000634199     
11.345000267029     0.579056978226     0.000000649181     
11.449999809265     0.584348976612     0.000000663156     
11.555000305176     0.589474976063     0.000000677173     
11.659999847412     0.594766020775     0.000000692029     
11.765000343323     0.600057005882     0.000000706508     
11.869999885559     0.605347990990     0.000000720189     
11.975000381470     0.610638976097     0.000000734877     
12.079999923706     0.615764975548     0.000000749607     
12.185000419617     0.621056020260     0.000000763918     
12.289999961853     0.626348018646     0.000000777977     
12.395000457764     0.631639003754     0.000000793127     
12.500000000000     0.636765003204     0.000000807815     
12.604999542236     0.642055988312     0.000000821916     
12.710000038147     0.647346973419     0.000000836898     
12.814999580383     0.652472972870     0.000000852090     
12.920000076294     0.657930016518     0.000000866526     
13.024999618530     0.663056015968     0.000000880879     
13.130000114441     0.668347001076     0.000000896742     
13.234999656677     0.673637986183     0.000000911431     
13.340000152588     0.678928971291     0.000000926035     
13.444999694824     0.684220016003     0.000000941227     
13.550000190735     0.689512014389     0.000000956461     
13.654999732971     0.694802999496     0.000000970520     
13.760000228882     0.700093984604     0.000000985376     
13.864999771118     0.705219984055     0.000001001113     
13.970000267029     0.710511028767     0.000001015844     
14.074999809265     0.715802013874     0.000001030616     
14.140000343323     0.724731028080     0.000001066864     
14.244999885559     0.729857027531     0.000001081452     
14.350000381470     0.735148012638     0.000001095656     
14.454999923706     0.740274012089     0.000001111012     
14.560000419617     0.745564997196     0.000001126368     
14.664999961853     0.750856995583     0.000001140957     
14.770000457764     0.756147980690     0.000001155161     
14.875000000000     0.761439025402     0.000001170901     
14.979999542236     0.766730010509     0.000001186257     
15.085000038147     0.772020995617     0.000001200845     
15.189999580383     0.777312994003     0.000001215818     
15.295000076294     0.782438993454     0.000001231174     
15.399999618530     0.787729978561     0.000001245762     
15.505000114441     0.793021023273     0.000001260350     
15.609999656677     0.798312008381     0.000001275706     
15.715000152588     0.803602993488     0.000001290295     
15.819999694824     0.808894991875     0.000001305267     
15.925000190735     0.814020991325     0.000001320239     
16.030000686646     0.819477021694     0.000001335211     
16.135000228882     0.824603021145     0.000001349416     
16.239999771118     0.829894006252     0.000001364772     
16.344999313354     0.835184991360     0.000001380128     
16.450000762939     0.840476989746     0.000001394716     
16.555000305176     0.845767974854     0.000001409304     
16.659999847412     0.850893974304     0.000001425044     
16.764999389648     0.856185019016     0.000001440400     
16.870000839233     0.861476004124     0.000001454605     
16.975000381470     0.866766989231     0.000001470345     
17.079999923706     0.872058987617     0.000001486085     
17.184999465942     0.877349972725     0.000001501441     
17.290000915527     0.882641017437     0.000001516413     
17.395000457764     0.887767016888     0.000001532921     
17.500000000000     0.893058001995     0.000001549045     
17.604999542236     0.898348987103     0.000001564017     
17.709999084473     0.903639972210     0.000001580525     
17.815000534058     0.908931970596     0.000001596648     
17.920000076294     0.914223015308     0.000001612388     
18.024999618530     0.919349014759     0.000001628512     
18.129999160767     0.924639999866     0.000001645404     
18.235000610352     0.929930984974     0.000001661528     
18.340000152588     0.935222029686     0.000001678420     
18.444999694824     0.940514028072     0.000001694927     
18.549999237061     0.945640027523     0.000001711819     
18.655000686646     0.951095998287     0.000001727175     
18.760000228882     0.956386983395     0.000001744451     
18.864999771118     0.961512982845     0.000001760958     
18.969999313354     0.966804027557     0.000001777082     
19.075000762939     0.972096025944     0.000001792822     
19.180000305176     0.977387011051     0.000001809714     
19.284999847412     0.982677996159     0.000001825454     
19.389999389648     0.987803995609     0.000001840426     
19.495000839233     0.993094980717     0.000001858470     
19.600000381470     0.998386025429     0.000001874593     
19.704999923706     1.003677964211     0.000001889950     
19.809999465942     1.008968949318     0.000001904922     
19.915000915527     1.014260053635     0.000001921813     
20.020000457764     1.019386053085     0.000001937553     
20.125000000000     1.024677038193     0.000001952526     
20.229999542236     1.029968023300     0.000001968266     
20.334999084473     1.035259008408     0.000001984006     
20.440000534058     1.040550947189     0.000001998978     
20.545000076294     1.045676946640     0.000002015102     
20.649999618530     1.051133036613     0.000002031609     
20.754999160767     1.056424021721     0.000002046965     
20.860000610352     1.061550021172     0.000002062705     
20.965000152588     1.066841006279     0.000002079981     
21.069999694824     1.072132945061     0.000002101480     
21.174999237061     1.077424049377     0.000002117220     
21.280000686646     1.082550048828     0.000002133727     
21.385000228882     1.088006019592     0.000002149083     
21.489999771118     1.093132019043     0.000002164056     
21.594999313354     1.098423004150     0.000002179412     
21.700000762939     1.103714942932     0.000002196303     
21.805000305176     1.109006047249     0.000002212043     
21.909999847412     1.114297032356     0.000002228167     
22.014999389648     1.119423031807     0.000002245059     
22.120000839233     1.124714016914     0.000002261951     
22.225000381470     1.130005002022     0.000002278458     
22.329999923706     1.135296940804     0.000002295734     
22.434999465942     1.140421986580     0.000002313010     
22.540000915527     1.145714044571     0.000002329517     
22.645000457764     1.151005029678     0.000002346793     
22.750000000000     1.156296014786     0.000002364836     
22.854999542236     1.161586999893     0.000002382496     
22.959999084473     1.166877985001     0.000002400155     
23.065000534058     1.172170042992     0.000002418583     
23.170000076294     1.177296042442     0.000002437394     
23.274999618530     1.182587027550     0.000002456205     
23.379999160767     1.187878012657     0.000002475016     
23.485000610352     1.193168997765     0.000002494979     
23.590000152588     1.197633981705     0.000002501889     
23.694999694824     1.194656968117     0.000002415511     
23.799999237061     1.189365983009     0.000002330669     
23.905000686646     1.184074997902     0.000002256576     
24.010000228882     1.178784012794     0.000002189009     
24.114999771118     1.173491954803     0.000002128353     
24.219999313354     1.168200969696     0.000002073455     
24.325000762939     1.163074970245     0.000002022012     
24.430000305176     1.157783985138     0.000001974024     
24.534999847412     1.152493000031     0.000001929875     
24.639999389648     1.147202014923     0.000001889182     
24.745000839233     1.141911029816     0.000001848872     
24.850000381470     1.136785030365     0.000001812017     
24.954999923706     1.131492972374     0.000001777466     
25.059999465942     1.126201987267     0.000001744451     
25.165000915527     1.120911002159     0.000001711819     
25.270000457764     1.115620017052     0.000001681875     
25.375000000000     1.110329031944     0.000001652698     
25.479999542236     1.105203032494     0.000001623905     
25.584999084473     1.099912047386     0.000001597032     
25.690000534058     1.094619989395     0.000001572079     
25.795000076294     1.089329004288     0.000001546741     
25.899999618530     1.084038019180     0.000001521788     
26.004999160767     1.078912019730     0.000001498753     
26.110000610352     1.073621034622     0.000001478791     
26.215000152588     1.068330049515     0.000001456140     
26.319999694824     1.063037991524     0.000001434258     
26.424999237061     1.057747006416     0.000001411992     
26.530000686646     1.052456021309     0.000001390493     
26.635000228882     1.047165036201     0.000001370530     
26.739999771118     1.042039036751     0.000001351719     
26.844999313354     1.036748051643     0.000001332140     
26.950000762939     1.031455993652     0.000001312945     
27.055000305176     1.026165008545     0.000001294901     
27.159999847412     1.020874023438     0.000001276858     
27.264999389648     1.015748023987     0.000001258047     
27.370000839233     1.010457038879     0.000001241155     
27.475000381470     1.005166053772     0.000001224263     
27.579999923706     0.999873995781     0.000001206988     
27.684999465942     0.994583010674     0.000001189712     
27.790000915527     0.989457011223     0.000001173588     
27.895000457764     0.984166026115     0.000001157465     
28.000000000000     0.978874981403     0.000001140957     
28.104999542236     0.973417997360     0.000001125217     
28.209999084473     0.968293011189     0.000001110245     
28.315000534058     0.963001012802     0.000001094121     
28.420000076294     0.957710027695     0.000001078381     
28.524999618530     0.952418982983     0.000001064176     
28.629999160767     0.947292983532     0.000001048820     
28.735000610352     0.942001998425     0.000001033848     
28.840000152588     0.936711013317     0.000001019260     
28.944999694824     0.931419014931     0.000001005055     
29.049999237061     0.926127970219     0.000000990467     
29.155000686646     0.920836985111     0.000000976647     
29.260000228882     0.915546000004     0.000000963210     
29.364999771118     0.910420000553     0.000000949390     
29.469999313354     0.905129015446     0.000000935569     
29.575000762939     0.899837017059     0.000000922133     
29.680000305176     0.894545972347     0.000000909080     
29.784999847412     0.889254987240     0.000000894876     
29.889999389648     0.883964002132     0.000000882207     
29.995000839233     0.878673017025     0.000000869538     
30.100000381470     0.873547017574     0.000000855718     
30.204999923706     0.868255019188     0.000000840745     
30.309999465942     0.862963974476     0.000000828844     
30.415000915527     0.857672989368     0.000000815792     
30.520000457764     0.852546989918     0.000000802355     
30.625000000000     0.847256004810     0.000000790070     
30.729999542236     0.841965019703     0.000000777785     
30.834999084473     0.836673974991     0.000000764733     
30.940000534058     0.831381976604     0.000000752064     
31.045000076294     0.826090991497     0.000000740547     
31.149999618530     0.820800006390     0.000000727878     
31.254999160767     0.815674006939     0.000000714826     
31.360000610352     0.810383021832     0.000000702925     
31.465000152588     0.805091977119     0.000000690640     
31.569999694824     0.799799978733     0.000000678355     
31.674999237061     0.794508993626     0.000000666070     
31.780000686646     0.789218008518     0.000000654553     
31.885000228882     0.784092009068     0.000000643036     
31.989999771118     0.778801023960     0.000000631519     
32.095001220703     0.773509979248     0.000000620386     
32.200000762939     0.768217980862     0.000000608869     
32.305000305176     0.762926995754     0.000000597352     
32.409999847412     0.757800996304     0.000000586218     
32.514999389648     0.752510011196     0.000000575085     
32.619998931885     0.747219026089     0.000000563568     
32.724998474121     0.741927981377     0.000000553203     
32.830001831055     0.736635982990     0.000000543605     
32.935001373291     0.731344997883     0.000000533240     
33.040000915527     0.726218998432     0.000000522491     
33.145000457764     0.720763027668     0.000000513661     
33.250000000000     0.715637028217     0.000000504831     
33.354999542236     0.710345983505     0.000000495617     
33.459999084473     0.705054998398     0.000000487172     
33.564998626709     0.699763000011     0.000000479110     
33.669998168945     0.694472014904     0.000000471048     
33.775001525879     0.689181029797     0.000000462986     
33.880001068115     0.683889985085     0.000000456459     
33.985000610352     0.678763985634     0.000000449165     
34.090000152588     0.673473000526     0.000000440336     
34.194999694824     0.668181002140     0.000000433041     
34.299999237061     0.662890017033     0.000000426131     
34.404998779297     0.657598972321     0.000000417685     
34.509998321533     0.652307987213     0.000000410007     
34.615001678467     0.647017002106     0.000000402713     
34.720001220703     0.641725003719     0.000000394267     
34.825000762939     0.636599004269     0.000000385822     
34.930000305176     0.631308019161     0.000000377376     
35.034999847412     0.626016974449     0.000000368930     
35.139999389648     0.620725989342     0.000000359716     
35.244998931885     0.615435004234     0.000000350503     
35.349998474121     0.610143005848     0.000000341289     
