
Cycle 1
Physical Cycle 1
Step 1

Time (s),          Potential (V),         Current (A)
0.104999996722     0.002644000109     -0.000007965529     
0.209999993443     0.007766999770     -0.000007263365     
0.314999997616     0.013055000454     -0.000006645615     
0.419999986887     0.018342999741     -0.000006077745     
0.524999976158     0.023631000891     -0.000005552081     
0.629999995232     0.028919000179     -0.000005064787     
0.735000014305     0.034207001328     -0.000004608189     
0.839999973774     0.039329998195     -0.000004182286     
0.944999992847     0.044617999345     -0.000003775569     
1.049999952316     0.049906000495     -0.000003395710     
1.154999971390     0.055194001645     -0.000003035035     
1.259999990463     0.060481999069     -0.000002693546     
1.365000009537     0.065770000219     -0.000002371241     
1.465000033379     0.072379998863     -0.000001908735     
1.570000052452     0.077503003180     -0.000001626088     
1.674999952316     0.082791000605     -0.000001356937     
1.779999971390     0.088078998029     -0.000001102439     
1.884999990463     0.093367002904     -0.000000861051     
1.990000009537     0.098655000329     -0.000000635859     
2.095000028610     0.103777997196     -0.000000421464     
2.200000047684     0.109066002071     -0.000000221336     
2.305000066757     0.114353999496     -0.000000031619     
2.410000085831     0.119641996920     0.000000145758     
2.515000104904     0.124930001795     0.000000316966     
2.619999885559     0.130052998662     0.000000478533     
2.724999904633     0.135341003537     0.000000634317     
2.829999923706     0.140628993511     0.000000783545     
2.934999942780     0.145916998386     0.000000928918     
3.039999961853     0.151040002704     0.000001066578     
3.144999980927     0.156327992678     0.000001199997     
3.250000000000     0.161615997553     0.000001326089     
3.355000019073     0.166904002428     0.000001446782     
3.460000038147     0.172027006745     0.000001560150     
3.565000057220     0.177314996719     0.000001668119     
3.670000076294     0.182603001595     0.000001766447     
3.775000095367     0.187891006470     0.000001857835     
3.880000114441     0.193178996444     0.000001940354     
3.984999895096     0.198467001319     0.000002014004     
4.090000152588     0.203755006194     0.000002074930     
4.195000171661     0.209042996168     0.000002127757     
4.300000190735     0.214166000485     0.000002166703     
4.405000209808     0.219454005361     0.000002193310     
4.510000228882     0.224741995335     0.000002206806     
4.614999771118     0.230030000210     0.000002206806     
4.719999790192     0.235318005085     0.000002192153     
4.824999809265     0.240605995059     0.000002165161     
4.929999828339     0.245728999376     0.000002125829     
5.034999847412     0.251017004251     0.000002075315     
5.139999866486     0.256305009127     0.000002013233     
5.244999885559     0.261593014002     0.000001943825     
5.349999904633     0.266880989075     0.000001866319     
5.454999923706     0.272168993950     0.000001783028     
5.559999942780     0.277456998825     0.000001695496     
5.664999961853     0.282745003700     0.000001607193     
5.769999980927     0.287867993116     0.000001517733     
5.875000000000     0.293155997992     0.000001430202     
5.980000019073     0.298444002867     0.000001345754     
6.085000038147     0.303732007742     0.000001264778     
6.190000057220     0.309020012617     0.000001187272     
6.295000076294     0.314309000969     0.000001117092     
6.400000095367     0.319597005844     0.000001052311     
6.505000114441     0.324885010719     0.000000992542     
6.610000133514     0.330172985792     0.000000939715     
6.715000152588     0.335294991732     0.000000893057     
6.820000171661     0.340584009886     0.000000851797     
6.925000190735     0.345872014761     0.000000817478     
7.030000209808     0.351159989834     0.000000788173     
7.135000228882     0.356447994709     0.000000763494     
7.239999771118     0.361735999584     0.000000743828     
7.344999790192     0.367024004459     0.000000729561     
7.449999809265     0.372146993876     0.000000717993     
7.554999828339     0.377434998751     0.000000709510     
7.659999847412     0.382887989283     0.000000704497     
7.764999866486     0.388011008501     0.000000701797     
7.869999885559     0.393299013376     0.000000701026     
7.974999904633     0.398586988449     0.000000701797     
8.079999923706     0.403874993324     0.000000704497     
8.185000419617     0.408998012543     0.000000707582     
8.289999961853     0.414285987616     0.000000711438     
8.395000457764     0.419573992491     0.000000717222     
8.500000000000     0.424861997366     0.000000723391     
8.604999542236     0.430150002241     0.000000728790     
8.710000038147     0.435438007116     0.000000736116     
8.814999580383     0.440726011992     0.000000744599     
8.920000076294     0.446013987064     0.000000752311     
9.024999618530     0.451137006283     0.000000760795     
9.130000114441     0.456425011158     0.000000769664     
9.234999656677     0.461712986231     0.000000778147     
9.340000152588     0.467000991106     0.000000787401     
9.444999694824     0.472288995981     0.000000796656     
9.550000190735     0.477577000856     0.000000805139     
9.654999732971     0.482865005732     0.000000812851     
9.760000228882     0.487987995148     0.000000821720     
9.864999771118     0.493276000023     0.000000830203     
9.970000267029     0.498564004898     0.000000837144     
10.074999809265     0.503852009773     0.000000844471     
10.180000305176     0.509140014648     0.000000851411     
10.284999847412     0.514428019524     0.000000857967     
10.390000343323     0.519550979137     0.000000864136     
10.494999885559     0.524838984013     0.000000870692     
10.600000381470     0.530126988888     0.000000876476     
10.704999923706     0.535414993763     0.000000881488     
10.810000419617     0.540702998638     0.000000887273     
10.914999961853     0.545991003513     0.000000893442     
11.020000457764     0.551279008389     0.000000897684     
11.125000000000     0.556567013264     0.000000903468     
11.229999542236     0.561689972878     0.000000909252     
11.335000038147     0.567143023014     0.000000913879     
11.439999580383     0.572265982628     0.000000919663     
11.545000076294     0.577553987503     0.000000926218     
11.649999618530     0.582841992378     0.000000931617     
11.755000114441     0.588129997253     0.000000938172     
11.859999656677     0.593418002129     0.000000945499     
11.965000152588     0.598541021347     0.000000952439     
12.069999694824     0.603829026222     0.000000958995     
12.175000190735     0.609116971493     0.000000967478     
12.279999732971     0.614404976368     0.000000975961     
12.385000228882     0.619693994522     0.000000984830     
12.489999771118     0.624981999397     0.000000994085     
12.595000267029     0.630270004272     0.000001003725     
12.699999809265     0.635392010212     0.000001013365     
12.805000305176     0.640680015087     0.000001023776     
12.909999847412     0.645968973637     0.000001035344     
13.015000343323     0.651256978512     0.000001046527     
13.119999885559     0.656544983387     0.000001058095     
13.225000381470     0.661832988262     0.000001070434     
13.329999923706     0.667120993137     0.000001083544     
13.435000419617     0.672408998013     0.000001095498     
13.539999961853     0.677532017231     0.000001108609     
13.645000457764     0.682820022106     0.000001122490     
13.750000000000     0.688108026981     0.000001135986     
13.854999542236     0.693395972252     0.000001149483     
13.960000038147     0.698683977127     0.000001164521     
14.064999580383     0.703971982002     0.000001178403     
14.170000076294     0.709095001221     0.000001193056     
14.274999618530     0.714383006096     0.000001208094     
14.380000114441     0.719671010971     0.000001223518     
14.484999656677     0.724959015846     0.000001238171     
14.590000152588     0.730247020721     0.000001253595     
14.694999694824     0.735369980335     0.000001269019     
14.800000190735     0.740822970867     0.000001284444     
14.904999732971     0.746110975742     0.000001300253     
15.010000228882     0.751233994961     0.000001316449     
15.114999771118     0.756521999836     0.000001332644     
15.220000267029     0.761810004711     0.000001348454     
15.324999809265     0.767098009586     0.000001365806     
15.430000305176     0.772386014462     0.000001382387     
15.534999847412     0.777674019337     0.000001398582     
15.640000343323     0.782796978951     0.000001415934     
15.744999885559     0.788250029087     0.000001434058     
15.850000381470     0.793372988701     0.000001451024     
15.954999923706     0.798660993576     0.000001468376     
16.059999465942     0.803948998451     0.000001486500     
16.165000915527     0.809237003326     0.000001504237     
16.270000457764     0.814360022545     0.000001522746     
16.375000000000     0.819648027420     0.000001541641     
16.479999542236     0.824935972691     0.000001558993     
16.584999084473     0.830223977566     0.000001576731     
16.690000534058     0.835677027702     0.000001595625     
16.795000076294     0.840635001659     0.000001612977     
16.899999618530     0.846087992191     0.000001630329     
17.004999160767     0.851211011410     0.000001647296     
17.110000610352     0.856499016285     0.000001663877     
17.215000152588     0.861787021160     0.000001680072     
17.319999694824     0.867075026035     0.000001695496     
17.424999237061     0.872362971306     0.000001710921     
17.530000686646     0.877650976181     0.000001724031     
17.635000228882     0.882773995399     0.000001737527     
17.739999771118     0.888226985931     0.000001751023     
17.844999313354     0.893350005150     0.000001763363     
17.950000762939     0.898638010025     0.000001774545     
18.055000305176     0.904092013836     0.000001784956     
18.159999847412     0.909214019775     0.000001796139     
18.264999389648     0.914502024651     0.000001805779     
18.370000839233     0.919790029526     0.000001814648     
18.475000381470     0.924912989140     0.000001824288     
18.579999923706     0.930200994015     0.000001832385     
18.684999465942     0.935488998890     0.000001840869     
18.790000915527     0.940777003765     0.000001849738     
18.895000457764     0.946065008640     0.000001857064     
19.000000000000     0.951353013515     0.000001863619     
19.104999542236     0.956475973129     0.000001872488     
19.209999084473     0.961763978004     0.000001880200     
19.315000534058     0.967217981815     0.000001886755     
19.420000076294     0.972339987755     0.000001894468     
19.524999618530     0.977627992630     0.000001902180     
19.629999160767     0.982917010784     0.000001909120     
19.735000610352     0.988205015659     0.000001916833     
19.840000152588     0.993327021599     0.000001924930     
19.944999694824     0.998781025410     0.000001932257     
20.049999237061     1.003903031349     0.000001939583     
20.155000686646     1.009191989899     0.000001947681     
20.260000228882     1.014644980431     0.000001956550     
20.364999771118     1.019767999649     0.000001965033     
20.469999313354     1.025056004524     0.000001973902     
20.575000762939     1.030344009399     0.000001983156     
20.680000305176     1.035467028618     0.000001992796     
20.784999847412     1.040755033493     0.000002002822     
20.889999389648     1.046043038368     0.000002013619     
20.995000839233     1.051331043243     0.000002023645     
21.100000381470     1.056619048119     0.000002034827     
21.204999923706     1.061907052994     0.000002047938     
21.309999465942     1.067195057869     0.000002059891     
21.415000915527     1.072317957878     0.000002072616     
21.520000457764     1.077605962753     0.000002086498     
21.625000000000     1.082893967628     0.000002101151     
21.729999542236     1.088181972504     0.000002116575     
21.834999084473     1.093469977379     0.000002132385     
21.940000534058     1.098757982254     0.000002149737     
22.045000076294     1.103881001472     0.000002167474     
22.149999618530     1.109333992004     0.000002186755     
22.254999160767     1.114457011223     0.000002206420     
22.360000610352     1.119910001755     0.000002227629     
22.465000152588     1.125033020973     0.000002248837     
22.569999694824     1.130321025848     0.000002273130     
22.674999237061     1.135609030724     0.000002298194     
22.780000686646     1.140897035599     0.000002324800     
22.885000228882     1.146020054817     0.000002352178     
22.989999771118     1.151307940483     0.000002382255     
23.094999313354     1.156595945358     0.000002413489     
23.200000762939     1.161883950233     0.000002446651     
23.305000305176     1.167171955109     0.000002481741     
23.409999847412     1.172294974327     0.000002519144     
23.514999389648     1.177582979202     0.000002557319     
23.620000839233     1.182870984077     0.000002600507     
23.725000381470     1.188158988953     0.000002644851     
23.829999923706     1.193446993828     0.000002691123     
23.934999465942     1.198238968849     0.000002716959     
24.040000915527     1.195430040359     0.000002536111     
24.145000457764     1.190142035484     0.000002342538     
24.250000000000     1.184854030609     0.000002174415     
24.354999542236     1.179566025734     0.000002027501     
24.459999084473     1.174278020859     0.000001896781     
24.565000534058     1.169155001640     0.000001781100     
24.670000076294     1.163866996765     0.000001677759     
24.774999618530     1.158578991890     0.000001584057     
24.879999160767     1.153290987015     0.000001498839     
24.985000610352     1.148002982140     0.000001423261     
25.090000152588     1.142879962921     0.000001353852     
25.194999694824     1.137591958046     0.000001289842     
25.299999237061     1.132303953171     0.000001232773     
25.405000686646     1.127015948296     0.000001179560     
25.510000228882     1.121727943420     0.000001130974     
25.614999771118     1.116440057755     0.000001086244     
25.719999313354     1.111317038536     0.000001045370     
25.825000762939     1.106029033661     0.000001006809     
25.930000305176     1.100741028786     0.000000971334     
26.034999847412     1.095453023911     0.000000938558     
26.139999389648     1.090165019035     0.000000909252     
26.245000839233     1.084877014160     0.000000880332     
26.350000381470     1.079589009285     0.000000853725     
26.454999923706     1.074465990067     0.000000829432     
26.559999465942     1.069012999535     0.000000806296     
26.665000915527     1.063889980316     0.000000784317     
26.770000457764     1.058601975441     0.000000764265     
26.875000000000     1.053478956223     0.000000744985     
26.979999542236     1.048190951347     0.000000726476     
27.084999084473     1.042737960815     0.000000710281     
27.190000534058     1.037614941597     0.000000694085     
27.295000076294     1.032327055931     0.000000678276     
27.399999618530     1.027039051056     0.000000664394     
27.504999160767     1.021751046181     0.000000651283     
27.610000610352     1.016463041306     0.000000638173     
27.715000152588     1.011175036430     0.000000625834     
27.819999694824     1.006052017212     0.000000614651     
27.924999237061     1.000764012337     0.000000602697     
28.030000686646     0.995476007462     0.000000592286     
28.135000228882     0.990188002586     0.000000582261     
28.239999771118     0.984899997711     0.000000573006     
28.344999313354     0.979776978493     0.000000563366     
28.450000762939     0.974488973618     0.000000554497     
28.555000305176     0.969201028347     0.000000546014     
28.659999847412     0.963913023472     0.000000537916     
28.764999389648     0.958625018597     0.000000529047     
28.870000839233     0.953336000443     0.000000522106     
28.975000381470     0.948047995567     0.000000514009     
29.079999923706     0.942759990692     0.000000506682     
29.184999465942     0.937637984753     0.000000500513     
29.290000915527     0.932349979877     0.000000493572     
29.395000457764     0.926895976067     0.000000485860     
29.500000000000     0.921607971191     0.000000480461     
29.604999542236     0.916485011578     0.000000473906     
29.709999084473     0.911363005638     0.000000466965     
29.815000534058     0.906075000763     0.000000461181     
29.920000076294     0.900620996952     0.000000455397     
30.024999618530     0.895332992077     0.000000449227     
30.129999160767     0.890209972858     0.000000443829     
30.235000610352     0.884922027588     0.000000437659     
30.340000152588     0.879634022713     0.000000432261     
30.444999694824     0.874346017838     0.000000426477     
30.549999237061     0.869058012962     0.000000421850     
30.655000686646     0.863770008087     0.000000416837     
30.760000228882     0.858482003212     0.000000410667     
30.864999771118     0.853193998337     0.000000405269     
30.969999313354     0.848070979118     0.000000400642     
31.075000762939     0.842782974243     0.000000395243     
31.180000305176     0.837495028973     0.000000390616     
31.284999847412     0.832207024097     0.000000385603     
31.389999389648     0.826919019222     0.000000380976     
31.495000839233     0.821796000004     0.000000375577     
31.600000381470     0.816507995129     0.000000372107     
31.704999923706     0.811219990253     0.000000367094     
31.809999465942     0.805931985378     0.000000362081     
31.844999313354     0.796016991138     0.000000361822     
31.950000762939     0.790728986263     0.000000357896     
32.055000305176     0.785440981388     0.000000354688     
32.159999847412     0.780152976513     0.000000350129     
32.264999389648     0.774864971638     0.000000345402     
32.369998931885     0.769742012024     0.000000342447     
32.474998474121     0.764454007149     0.000000338733     
32.580001831055     0.759166002274     0.000000334385     
32.685001373291     0.753877997398     0.000000330671     
32.790000915527     0.748589992523     0.000000327083     
32.895000457764     0.743301987648     0.000000323200     
33.000000000000     0.738013982773     0.000000319738     
33.104999542236     0.732891023159     0.000000316277     
33.209999084473     0.727603018284     0.000000312267     
33.314998626709     0.722315013409     0.000000308426     
33.419998168945     0.717027008533     0.000000305851     
33.525001525879     0.711739003658     0.000000302475     
33.630001068115     0.706615984440     0.000000298676     
33.735000610352     0.701162993908     0.000000296017     
33.840000152588     0.696039974689     0.000000293273     
33.944999694824     0.690752029419     0.000000290403     
34.049999237061     0.685464024544     0.000000287321     
34.154998779297     0.680176019669     0.000000285338     
34.259998321533     0.674888014793     0.000000282341     
34.365001678467     0.669598996639     0.000000279681     
34.470001220703     0.664476990700     0.000000277571     
34.575000762939     0.659022986889     0.000000273645     
34.680000305176     0.653900980949     0.000000270015     
34.784999847412     0.648612976074     0.000000266512     
34.889999389648     0.643324017525     0.000000262882     
34.994998931885     0.638036012650     0.000000257310     
35.099998474121     0.632914006710     0.000000252076     
35.205001831055     0.627460002899     0.000000246420     
35.310001373291     0.622171998024     0.000000239709     
35.415000915527     0.616883993149     0.000000233082     
