
Cycle 1
Physical Cycle 1
Step 1

Time (s),          Potential (V),         Current (A)
0.104999996722     0.002805999946     -0.000000198674     
0.209999993443     0.008086999878     -0.000000171929     
0.314999997616     0.013368999586     -0.000000156647     
0.419999986887     0.018485000357     -0.000000141364     
0.449999988079     0.028552999720     -0.000000115789     
0.555000007153     0.033833999187     -0.000000103864     
0.660000026226     0.039115998894     -0.000000092708     
0.764999985695     0.044397000223     -0.000000083091     
0.795000016689     0.054464999586     -0.000000064873     
0.899999976158     0.059746000916     -0.000000055702     
1.004999995232     0.065027996898     -0.000000046236     
1.110000014305     0.070143997669     -0.000000038411     
1.215000033379     0.075590997934     -0.000000029534     
1.320000052452     0.080706998706     -0.000000020362     
1.424999952316     0.085988000035     -0.000000012285     
1.529999971390     0.091269999743     -0.000000003155     
1.600000023842     0.099192000926     0.000000010318     
1.705000042915     0.104473002255     0.000000020124     
1.809999942780     0.109590001404     0.000000029133     
1.914999961853     0.114871002734     0.000000038943     
2.019999980927     0.119988001883     0.000000049769     
2.125000000000     0.125268995762     0.000000059725     
2.230000019073     0.130384996533     0.000000070397     
2.335000038147     0.135501995683     0.000000082290     
2.430000066757     0.142929002643     0.000000099666     
2.535000085831     0.148045003414     0.000000110983     
2.640000104904     0.153327003121     0.000000122889     
2.744999885559     0.158608004451     0.000000136099     
2.849999904633     0.163890004158     0.000000149478     
2.954999923706     0.169171005487     0.000000161931     
3.059999942780     0.174452006817     0.000000175940     
3.164999961853     0.179734006524     0.000000190076     
3.269999980927     0.185014992952     0.000000203370     
3.375000000000     0.190296992660     0.000000217843     
3.480000019073     0.195412993431     0.000000232778     
3.585000038147     0.200694993138     0.000000247124     
3.690000057220     0.205975994468     0.000000261933     
3.795000076294     0.211256995797     0.000000277373     
3.900000095367     0.216538995504     0.000000291677     
4.005000114441     0.221654996276     0.000000306738     
4.110000133514     0.226936995983     0.000000322473     
4.215000152588     0.232217997313     0.000000337324     
4.320000171661     0.237499997020     0.000000352175     
4.425000190735     0.242780998349     0.000000368120     
4.530000209808     0.247896999121     0.000000382802     
4.635000228882     0.253179013729     0.000000396896     
4.739999771118     0.258459985256     0.000000412546     
4.844999790192     0.263741999865     0.000000427313     
4.949999809265     0.269023001194     0.000000441154     
5.054999828339     0.274304986000     0.000000455837     
5.159999847412     0.279585987329     0.000000470520     
5.264999866486     0.284866988659     0.000000483772     
5.369999885559     0.289983987808     0.000000498076     
5.474999904633     0.295264989138     0.000000512170     
5.579999923706     0.300547003746     0.000000525254     
5.684999942780     0.305828005075     0.000000539011     
5.789999961853     0.311109989882     0.000000553399     
5.894999980927     0.316390991211     0.000000566441     
6.000000000000     0.321507006884     0.000000580198     
6.105000019073     0.326788991690     0.000000594250     
6.210000038147     0.332069993019     0.000000607544     
6.315000057220     0.337352007627     0.000000620671     
6.420000076294     0.342633008957     0.000000635101     
6.525000095367     0.347750008106     0.000000648563     
6.630000114441     0.353031009436     0.000000661858     
6.735000133514     0.358312010765     0.000000676288     
6.840000152588     0.363593995571     0.000000689877     
6.945000171661     0.368874996901     0.000000702961     
7.050000190735     0.374157011509     0.000000717475     
7.155000209808     0.379438012838     0.000000731275     
7.260000228882     0.384555011988     0.000000744148     
7.364999771118     0.389836013317     0.000000758537     
7.469999790192     0.395117014647     0.000000772756     
7.574999809265     0.400398999453     0.000000786009     
7.679999828339     0.405680000782     0.000000800439     
7.784999847412     0.410961985588     0.000000814617     
7.889999866486     0.416078001261     0.000000828458     
7.994999885559     0.421525001526     0.000000842426     
8.100000381470     0.426640987396     0.000000857024     
8.204999923706     0.431923002005     0.000000871034     
8.310000419617     0.437204003334     0.000000885422     
8.414999961853     0.442485004663     0.000000900399     
8.520000457764     0.447766989470     0.000000914325     
8.625000000000     0.452883005142     0.000000928755     
8.729999542236     0.458330005407     0.000000944237     
8.835000038147     0.463445991278     0.000000958415     
8.939999580383     0.468728005886     0.000000972845     
9.045000076294     0.474009007215     0.000000988453     
9.149999618530     0.479290008545     0.000001003431     
9.255000114441     0.484571993351     0.000001017482     
9.359999656677     0.489852994680     0.000001033385     
9.449999809265     0.497280001640     0.000001059796     
9.555000305176     0.502726972103     0.000001073260     
9.659999847412     0.507843017578     0.000001087878     
9.765000343323     0.513125002384     0.000001103650     
9.869999885559     0.518405973911     0.000001119037     
9.975000381470     0.523687005043     0.000001133655     
10.079999923706     0.528968989849     0.000001150581     
10.185000419617     0.534250020981     0.000001166737     
10.289999961853     0.539532005787     0.000001182125     
10.395000457764     0.544812977314     0.000001198666     
10.500000000000     0.549929976463     0.000001215207     
10.604999542236     0.555211007595     0.000001231364     
10.710000038147     0.560491979122     0.000001248290     
10.814999580383     0.565774023533     0.000001265600     
10.920000076294     0.571054995060     0.000001282142     
11.024999618530     0.576336979866     0.000001299452     
11.130000114441     0.581618010998     0.000001317532     
11.234999656677     0.586899995804     0.000001334458     
11.340000152588     0.592015981674     0.000001351384     
11.444999694824     0.597463011742     0.000001369080     
11.550000190735     0.602578997612     0.000001386006     
11.654999732971     0.607860028744     0.000001403316     
11.760000228882     0.613142013550     0.000001421396     
11.864999771118     0.618422985077     0.000001438322     
11.970000267029     0.623705029488     0.000001454479     
12.074999809265     0.628986001015     0.000001472174     
12.180000305176     0.634267985821     0.000001488331     
12.284999847412     0.639383971691     0.000001503718     
12.390000343323     0.644829988480     0.000001519875     
12.494999885559     0.649946987629     0.000001535647     
12.600000381470     0.655228018761     0.000001550264     
12.704999923706     0.660510003567     0.000001565267     
12.810000419617     0.665790975094     0.000001580270     
12.914999961853     0.671073019505     0.000001594118     
13.020000457764     0.676353991032     0.000001608736     
13.125000000000     0.681635022163     0.000001622969     
13.229999542236     0.686752021313     0.000001636433     
13.335000038147     0.692197978497     0.000001649512     
13.439999580383     0.697480022907     0.000001663745     
13.545000076294     0.702596008778     0.000001676440     
13.649999618530     0.708042979240     0.000001689134     
13.755000114441     0.713159024715     0.000001702983     
13.859999656677     0.718439996243     0.000001715293     
13.965000152588     0.723721981049     0.000001727602     
14.069999694824     0.729003012180     0.000001741066     
14.175000190735     0.734284996986     0.000001754145     
14.279999732971     0.739566028118     0.000001766070     
14.385000228882     0.744848012924     0.000001779534     
14.489999771118     0.750128984451     0.000001792613     
14.595000267029     0.755244970322     0.000001804539     
14.699999809265     0.760692000389     0.000001818002     
14.805000305176     0.765807986259     0.000001831082     
14.909999847412     0.771089971066     0.000001844161     
15.015000343323     0.776371002197     0.000001858009     
15.119999885559     0.781652987003     0.000001871473     
15.225000381470     0.786934018135     0.000001884937     
15.329999923706     0.792216002941     0.000001898785     
15.435000419617     0.797496974468     0.000001913403     
15.539999961853     0.802778005600     0.000001926867     
15.645000457764     0.808059990406     0.000001941100     
15.750000000000     0.813175976276     0.000001956103     
15.854999542236     0.818458020687     0.000001970721     
15.960000038147     0.823738992214     0.000001985339     
16.065000534058     0.829020977020     0.000002001111     
16.170000076294     0.834302008152     0.000002016113     
16.274999618530     0.839582979679     0.000002031116     
16.379999160767     0.844865024090     0.000002047272     
16.485000610352     0.850145995617     0.000002063044     
16.590000152588     0.855427980423     0.000002078047     
16.694999694824     0.860709011555     0.000002095357     
16.799999237061     0.865990996361     0.000002111899     
16.905000686646     0.871106982231     0.000002128055     
17.010000228882     0.876388013363     0.000002145751     
17.114999771118     0.881669998169     0.000002163446     
17.219999313354     0.886951029301     0.000002179603     
17.325000762939     0.892233014107     0.000002196913     
17.430000305176     0.897513985634     0.000002214993     
17.534999847412     0.902630984783     0.000002232689     
17.639999389648     0.907912015915     0.000002250384     
17.745000839233     0.913357973099     0.000002269618     
17.850000381470     0.918474972248     0.000002287313     
17.954999923706     0.923756003380     0.000002306163     
18.059999465942     0.929037988186     0.000002325781     
18.165000915527     0.934319019318     0.000002344246     
18.270000457764     0.939601004124     0.000002363865     
18.375000000000     0.944881975651     0.000002385022     
18.479999542236     0.949998021126     0.000002404641     
18.584999084473     0.955444991589     0.000002425029     
18.690000534058     0.960560977459     0.000002446956     
18.795000076294     0.966008007526     0.000002468883     
18.899999618530     0.971123993397     0.000002490040     
19.004999160767     0.976405978203     0.000002512352     
19.110000610352     0.981687009335     0.000002535432     
19.215000152588     0.986968994141     0.000002558513     
19.319999694824     0.992250025272     0.000002582748     
19.424999237061     0.997530996799     0.000002608137     
19.530000686646     1.002812981606     0.000002632757     
19.635000228882     1.008093953133     0.000002659300     
19.739999771118     1.013375997543     0.000002686227     
19.844999313354     1.018491983414     0.000002712386     
19.950000762939     1.023774027824     0.000002740467     
20.055000305176     1.029054999352     0.000002770857     
20.159999847412     1.034335970879     0.000002800478     
20.264999389648     1.039618015289     0.000002831252     
20.370000839233     1.044734001160     0.000002863950     
20.475000381470     1.050181031227     0.000002897033     
20.579999923706     1.055297017097     0.000002930500     
20.684999465942     1.060578942299     0.000002966275     
20.790000915527     1.065860033035     0.000003002051     
20.895000457764     1.071141004562     0.000003038595     
21.000000000000     1.076423048973     0.000003078217     
21.104999542236     1.081704020500     0.000003118994     
21.209999084473     1.086985945702     0.000003158616     
21.315000534058     1.092267036438     0.000003201315     
21.420000076294     1.097383975983     0.000003244784     
21.524999618530     1.102664947510     0.000003288253     
21.629999160767     1.107946038246     0.000003333646     
21.735000610352     1.113227963448     0.000003381731     
21.840000152588     1.118509054184     0.000003429431     
21.944999694824     1.123790979385     0.000003479055     
22.049999237061     1.129071950912     0.000003530218     
22.155000686646     1.134353995323     0.000003581380     
22.260000228882     1.139634966850     0.000003634466     
22.364999771118     1.144750952721     0.000003688706     
22.469999313354     1.150032997131     0.000003743331     
22.575000762939     1.155313968658     0.000003800264     
22.680000305176     1.160596013069     0.000003858735     
22.784999847412     1.165711998940     0.000003917591     
22.889999389648     1.171159029007     0.000003976832     
22.995000839233     1.176440000534     0.000004039150     
23.100000381470     1.181555986404     0.000004102238     
23.204999923706     1.186838030815     0.000004164557     
23.309999465942     1.192119002342     0.000004229568     
23.415000915527     1.197401046753     0.000004295733     
23.520000457764     1.197070956230     0.000004133397     
23.625000000000     1.191789031029     0.000003848733     
23.729999542236     1.186673045158     0.000003598306     
23.834999084473     1.181391000748     0.000003372883     
23.940000534058     1.176110029221     0.000003169387     
24.045000076294     1.170829057693     0.000002984355     
24.149999618530     1.165711998940     0.000002814326     
24.254999160767     1.160431027412     0.000002658146     
24.360000610352     1.155148983002     0.000002515044     
24.465000152588     1.149868011475     0.000002381945     
24.569999694824     1.144585967064     0.000002259232     
24.674999237061     1.139469981194     0.000002146520     
24.780000686646     1.134024024010     0.000002040733     
24.885000228882     1.128906965256     0.000001942254     
24.989999771118     1.123461008072     0.000001851854     
25.094999313354     1.118343949318     0.000001767225     
25.200000762939     1.113062977791     0.000001687211     
25.305000305176     1.107781052589     0.000001614121     
25.409999847412     1.102499961853     0.000001545264     
25.514999389648     1.097383975983     0.000001480252     
25.620000839233     1.092102050781     0.000001420627     
25.725000381470     1.086820960045     0.000001364464     
25.829999923706     1.081539034843     0.000001310993     
25.934999465942     1.076257944107     0.000001261754     
26.040000915527     1.070976018906     0.000001215977     
26.145000457764     1.065695047379     0.000001172123     
26.250000000000     1.060413002968     0.000001131347     
26.354999542236     1.055132031441     0.000001094033     
26.459999084473     1.049850940704     0.000001057488     
26.565000534058     1.044734001160     0.000001023636     
26.670000076294     1.039288043976     0.000000992477     
26.774999618530     1.034170985222     0.000000962087     
26.879999160767     1.028890013695     0.000000933236     
26.985000610352     1.023607969284     0.000000907462     
27.090000152588     1.018326997757     0.000000882458     
27.194999694824     1.013046026230     0.000000857839     
27.299999237061     1.007763981819     0.000000835142     
27.405000686646     1.002483010292     0.000000814370     
27.510000228882     0.997366011143     0.000000793212     
27.614999771118     0.991919994354     0.000000774363     
27.719999313354     0.986802995205     0.000000756283     
27.825000762939     0.981522023678     0.000000737818     
27.930000305176     0.976240992546     0.000000720892     
28.034999847412     0.970959007740     0.000000705505     
28.139999389648     0.965843021870     0.000000689348     
28.245000839233     0.960395991802     0.000000674346     
28.350000381470     0.955115020275     0.000000660497     
28.454999923706     0.949832975864     0.000000646264     
28.559999465942     0.944552004337     0.000000632800     
28.665000915527     0.939436018467     0.000000620490     
28.770000457764     0.934153974056     0.000000607411     
28.875000000000     0.928873002529     0.000000595102     
28.979999542236     0.923591017723     0.000000584330     
29.084999084473     0.918309986591     0.000000572790     
29.190000534058     0.913192987442     0.000000560480     
29.295000076294     0.907912015915     0.000000550479     
29.399999618530     0.902465999126     0.000000540092     
29.504999160767     0.897184014320     0.000000529321     
29.610000610352     0.891902983189     0.000000519319     
29.715000152588     0.886785984039     0.000000509702     
29.819999694824     0.881505012512     0.000000499701     
29.924999237061     0.876223027706     0.000000490084     
30.030000686646     0.870941996574     0.000000481621     
30.135000228882     0.865661025047     0.000000471619     
30.239999771118     0.860378980637     0.000000463156     
30.344999313354     0.855098009109     0.000000454308     
30.450000762939     0.849816024303     0.000000445076     
30.555000305176     0.844699978828     0.000000436613     
30.659999847412     0.839417994022     0.000000428919     
30.764999389648     0.834137022495     0.000000419687     
30.870000839233     0.828854978085     0.000000411224     
30.975000381470     0.823574006557     0.000000403915     
31.079999923706     0.818292975426     0.000000395837     
31.184999465942     0.813010990620     0.000000386989     
31.290000915527     0.807730019093     0.000000379680     
31.395000457764     0.802447974682     0.000000372371     
31.500000000000     0.797331988811     0.000000363524     
31.604999542236     0.791885018349     0.000000356215     
31.709999084473     0.786768972874     0.000000348906     
31.774999618530     0.778352022171     0.000000335641     
31.879999160767     0.772904992104     0.000000328783     
31.985000610352     0.767789006233     0.000000321715     
32.090000152588     0.762507021427     0.000000314143     
32.194999694824     0.757225990295     0.000000306696     
32.299999237061     0.751945018768     0.000000299797     
32.404998779297     0.746662974358     0.000000291719     
32.509998321533     0.741382002831     0.000000284272     
32.615001678467     0.736265003681     0.000000277878     
32.720001220703     0.730818986893     0.000000269842     
32.825000762939     0.725701987743     0.000000262396     
32.930000305176     0.720421016216     0.000000256127     
33.034999847412     0.715139985085     0.000000248428     
33.139999389648     0.709858000278     0.000000240729     
33.244998931885     0.704577028751     0.000000234376     
33.349998474121     0.699294984341     0.000000226720     
33.455001831055     0.694014012814     0.000000219399     
33.560001373291     0.688897013664     0.000000212626     
33.665000915527     0.683450996876     0.000000205600     
33.770000457764     0.678169012070     0.000000197859     
33.875000000000     0.673053026199     0.000000191254     
33.979999542236     0.667771995068     0.000000184649     
34.084999084473     0.662490010262     0.000000177455     
34.189998626709     0.657208979130     0.000000170723     
34.294998168945     0.651926994324     0.000000164244     
34.400001525879     0.646646022797     0.000000157177     
34.505001068115     0.641363978386     0.000000151034     
34.610000610352     0.636083006859     0.000000144808     
34.715000152588     0.630967020988     0.000000138076     
34.819999694824     0.625684976578     0.000000131303     
34.924999237061     0.620404005051     0.000000125960     
35.029998779297     0.615122020245     0.000000119145     
35.134998321533     0.609840989113     0.000000112455     
35.240001678467     0.604559004307     0.000000106902     
