
Cycle 1
Physical Cycle 1
Step 1

Time (s),          Potential (V),         Current (A)
0.104999996722     0.002641000086     -0.000000110799     
0.209999993443     0.007922000252     -0.000000103158     
0.314999997616     0.013203999959     -0.000000091696     
0.419999986887     0.018485000357     -0.000000084054     
0.449999988079     0.028387999162     -0.000000050393     
0.555000007153     0.033668998629     -0.000000043084     
0.660000026226     0.039115998894     -0.000000034621     
0.764999985695     0.044231999665     -0.000000026928     
0.795000016689     0.054299999028     -0.000000010097     
0.899999976158     0.059581000358     -0.000000001304     
1.004999995232     0.064862996340     0.000000008919     
1.110000014305     0.070143997669     0.000000018553     
1.139999985695     0.079882003367     0.000000039389     
1.245000004768     0.084997996688     0.000000051940     
1.350000023842     0.090115003288     0.000000066066     
1.455000042915     0.095395997167     0.000000079884     
1.554999947548     0.102493003011     0.000000101811     
1.659999966621     0.107608996332     0.000000118808     
1.764999985695     0.112891003489     0.000000136562     
1.870000004768     0.118171997368     0.000000156966     
1.975000023842     0.123453997076     0.000000177539     
2.079999923706     0.128570005298     0.000000198911     
2.184999942780     0.133851006627     0.000000222597     
2.289999961853     0.139133006334     0.000000246787     
2.394999980927     0.144249007106     0.000000271693     
2.500000000000     0.149696007371     0.000000298745     
2.605000019073     0.154976993799     0.000000325880     
2.710000038147     0.160093992949     0.000000353731     
2.815000057220     0.165374994278     0.000000383349     
2.920000076294     0.170655995607     0.000000413135     
3.025000095367     0.175937995315     0.000000442332     
3.130000114441     0.181218996644     0.000000473717     
3.234999895096     0.186335995793     0.000000505228     
3.339999914169     0.191616997123     0.000000535730     
3.444999933243     0.196898996830     0.000000567241     
3.549999952316     0.202179998159     0.000000599467     
3.654999971390     0.207460999489     0.000000630347     
3.759999990463     0.212577998638     0.000000661521     
3.865000009537     0.217858999968     0.000000693621     
3.970000028610     0.223140999675     0.000000724754     
4.074999809265     0.228257000446     0.000000755507     
4.179999828339     0.233539000154     0.000000787187     
4.284999847412     0.238820001483     0.000000817604     
4.389999866486     0.244101002812     0.000000847685     
4.494999885559     0.249383002520     0.000000878018     
4.599999904633     0.254498988390     0.000000907046     
4.704999923706     0.259781002998     0.000000935697     
4.809999942780     0.265062004328     0.000000964599     
4.914999961853     0.270343989134     0.000000992029     
5.019999980927     0.275624990463     0.000001018366     
5.085000038147     0.284372001886     0.000001065182     
5.190000057220     0.289653986692     0.000001089801     
5.295000076294     0.294934988022     0.000001112882     
5.400000095367     0.300217002630     0.000001137502     
5.505000114441     0.305498003960     0.000001160583     
5.610000133514     0.310779988766     0.000001182509     
5.715000152588     0.315896004438     0.000001204821     
5.820000171661     0.321177005768     0.000001226748     
5.925000190735     0.326458990574     0.000001247136     
6.030000209808     0.331739991903     0.000001267524     
6.135000228882     0.337022006512     0.000001287912     
6.239999771118     0.342303007841     0.000001306761     
6.344999790192     0.347420006990     0.000001325226     
6.449999809265     0.352701008320     0.000001344460     
6.554999828339     0.357982009649     0.000001362155     
6.659999847412     0.363263994455     0.000001379851     
6.764999866486     0.368544995785     0.000001397161     
6.869999885559     0.373991996050     0.000001413318     
6.974999904633     0.379108011723     0.000001429475     
7.079999923706     0.384389996529     0.000001446016     
7.184999942780     0.389670997858     0.000001460634     
7.289999961853     0.394951999187     0.000001475636     
7.394999980927     0.400068998337     0.000001490639     
7.500000000000     0.405514985323     0.000001504872     
7.605000019073     0.410632014275     0.000001518336     
7.710000038147     0.415912985802     0.000001532184     
7.815000057220     0.421195000410     0.000001545648     
7.920000076294     0.426476001740     0.000001557573     
8.024999618530     0.431757003069     0.000001570653     
8.130000114441     0.437038987875     0.000001583347     
8.234999656677     0.442319989204     0.000001594118     
8.340000152588     0.447602003813     0.000001605658     
8.444999694824     0.452883005142     0.000001617199     
8.550000190735     0.458164989948     0.000001627970     
8.654999732971     0.463445991278     0.000001637587     
8.760000228882     0.468562006950     0.000001647973     
8.864999771118     0.473843991756     0.000001656821     
8.970000267029     0.479124993086     0.000001666053     
9.074999809265     0.484407007694     0.000001674901     
9.180000305176     0.489688009024     0.000001682979     
9.284999847412     0.494969993830     0.000001690288     
9.390000343323     0.500250995159     0.000001698367     
9.494999885559     0.505532979965     0.000001704906     
9.600000381470     0.510814011097     0.000001711446     
9.704999923706     0.515929996967     0.000001717985     
9.810000419617     0.521211981773     0.000001724140     
9.914999961853     0.526493012905     0.000001729141     
10.020000457764     0.531774997711     0.000001735681     
10.125000000000     0.537056028843     0.000001741066     
10.229999542236     0.542338013649     0.000001745682     
10.335000038147     0.547618985176     0.000001750683     
10.439999580383     0.552900016308     0.000001756069     
10.545000076294     0.558182001114     0.000001759531     
10.649999618530     0.563297986984     0.000001763762     
10.755000114441     0.568579971790     0.000001767994     
10.859999656677     0.573861002922     0.000001771456     
10.965000152588     0.579142987728     0.000001774149     
11.069999694824     0.584424018860     0.000001777226     
11.175000190735     0.589704990387     0.000001778765     
11.279999732971     0.594986975193     0.000001779919     
11.385000228882     0.600268006325     0.000001781458     
11.489999771118     0.605549991131     0.000001781458     
11.595000267029     0.610831022263     0.000001780304     
11.699999809265     0.616113007069     0.000001778380     
11.805000305176     0.621228992939     0.000001775303     
11.909999847412     0.626510024071     0.000001770687     
12.015000343323     0.631792008877     0.000001766070     
12.119999885559     0.637072980404     0.000001759146     
12.225000381470     0.642355024815     0.000001751068     
12.329999923706     0.647635996342     0.000001742605     
12.435000419617     0.652917981148     0.000001733757     
12.539999961853     0.658199012280     0.000001722217     
12.645000457764     0.663479983807     0.000001710676     
12.750000000000     0.668762028217     0.000001699136     
12.854999542236     0.673878014088     0.000001685287     
12.960000038147     0.679324984550     0.000001672208     
13.064999580383     0.684440970421     0.000001659129     
13.170000076294     0.689723014832     0.000001644896     
13.274999618530     0.695003986359     0.000001630663     
13.380000114441     0.700285971165     0.000001617584     
13.484999656677     0.705567002296     0.000001603735     
13.590000152588     0.710847973824     0.000001589887     
13.694999694824     0.716130018234     0.000001577577     
13.800000190735     0.721246004105     0.000001564882     
13.904999732971     0.726527988911     0.000001552957     
14.010000228882     0.731974005699     0.000001542955     
14.114999771118     0.737091004848     0.000001532954     
14.220000267029     0.742537021637     0.000001523337     
14.324999809265     0.747653007507     0.000001515643     
14.430000305176     0.752934992313     0.000001508719     
14.534999847412     0.758216023445     0.000001501410     
14.640000343323     0.763498008251     0.000001496409     
14.744999885559     0.768778979778     0.000001492562     
14.850000381470     0.774061024189     0.000001488715     
14.954999923706     0.779341995716     0.000001486023     
15.060000419617     0.784623026848     0.000001485638     
15.164999961853     0.789740025997     0.000001484484     
15.270000457764     0.795185983181     0.000001484869     
15.375000000000     0.800302982330     0.000001486792     
15.479999542236     0.805584013462     0.000001487946     
15.585000038147     0.810865998268     0.000001490639     
15.689999580383     0.816147029400     0.000001495255     
15.795000076294     0.821428000927     0.000001498717     
15.899999618530     0.826545000076     0.000001503333     
16.004999160767     0.831991016865     0.000001509488     
16.110000610352     0.837273001671     0.000001515258     
16.215000152588     0.842388987541     0.000001521798     
16.319999694824     0.847836017609     0.000001529492     
16.424999237061     0.853116989136     0.000001537185     
16.530000686646     0.858232975006     0.000001544494     
16.635000228882     0.863515019417     0.000001553727     
16.739999771118     0.868795990944     0.000001563344     
16.844999313354     0.874077975750     0.000001572191     
16.950000762939     0.879359006882     0.000001582193     
17.055000305176     0.884640991688     0.000001593349     
17.159999847412     0.889922022820     0.000001602966     
17.264999389648     0.895204007626     0.000001614121     
17.370000839233     0.900319993496     0.000001626047     
17.475000381470     0.905601024628     0.000001637587     
17.579999923706     0.910883009434     0.000001649512     
17.684999465942     0.916329026222     0.000001662207     
17.790000915527     0.921611011028     0.000001674516     
17.895000457764     0.926726996899     0.000001687596     
18.000000000000     0.932008981705     0.000001701444     
18.104999542236     0.937290012836     0.000001714523     
18.209999084473     0.942570984364     0.000001728372     
18.315000534058     0.947853028774     0.000001743374     
18.420000076294     0.952969014645     0.000001758377     
18.524999618530     0.958415985107     0.000001772610     
18.629999160767     0.963531970978     0.000001788767     
18.735000610352     0.968814015388     0.000001805308     
18.840000152588     0.974094986916     0.000001820310     
18.944999694824     0.979376018047     0.000001837236     
19.049999237061     0.984658002853     0.000001854932     
19.155000686646     0.989938974380     0.000001872242     
19.260000228882     0.995221018791     0.000001890322     
19.364999771118     1.000501990318     0.000001909941     
19.469999313354     1.005619049072     0.000001928406     
19.575000762939     1.010900020599     0.000001948794     
19.680000305176     1.016180992126     0.000001969182     
19.784999847412     1.021463036537     0.000001989955     
19.889999389648     1.026744008064     0.000002011112     
19.995000839233     1.032026052475     0.000002034193     
20.100000381470     1.037307024002     0.000002057274     
20.204999923706     1.042423963547     0.000002081509     
20.309999465942     1.047705054283     0.000002106898     
20.415000915527     1.052986025810     0.000002132287     
20.520000457764     1.058267951012     0.000002158445     
20.625000000000     1.063549041748     0.000002186142     
20.729999542236     1.068830966949     0.000002214224     
20.834999084473     1.074112057686     0.000002242306     
20.940000534058     1.079393982887     0.000002273080     
21.045000076294     1.084674954414     0.000002304624     
21.149999618530     1.089791059494     0.000002335398     
21.254999160767     1.095237970352     0.000002368866     
21.360000610352     1.100353956223     0.000002403102     
21.465000152588     1.105636000633     0.000002436569     
21.569999694824     1.110916972160     0.000002472729     
21.674999237061     1.116199016571     0.000002509659     
21.780000686646     1.121479988098     0.000002546973     
21.885000228882     1.126762032509     0.000002585056     
21.989999771118     1.131878018379     0.000002625448     
22.094999313354     1.137158989906     0.000002665839     
22.200000762939     1.142441034317     0.000002706616     
22.305000305176     1.147722005844     0.000002749700     
22.409999847412     1.153004050255     0.000002793169     
22.514999389648     1.158285021782     0.000002837407     
22.620000839233     1.163566946983     0.000002883569     
22.725000381470     1.168848037720     0.000002930885     
22.829999923706     1.174129009247     0.000002978585     
22.934999465942     1.179245948792     0.000003028209     
23.040000915527     1.184692025185     0.000003078217     
23.145000457764     1.189973950386     0.000003128611     
23.250000000000     1.195090055466     0.000003181697     
23.354999542236     1.198555946350     0.000003174003     
23.459999084473     1.194100022316     0.000002959736     
23.565000534058     1.188817977905     0.000002754316     
23.670000076294     1.183537006378     0.000002570054     
23.774999618530     1.178421020508     0.000002402718     
23.879999160767     1.172973990440     0.000002250769     
23.985000610352     1.167858004570     0.000002113053     
24.090000152588     1.162410974503     0.000001986108     
24.194999694824     1.157294988632     0.000001869934     
24.299999237061     1.152012944221     0.000001764532     
24.405000686646     1.146731972694     0.000001666823     
24.510000228882     1.141615986824     0.000001576807     
24.614999771118     1.136333942413     0.000001494101     
24.719999313354     1.131052970886     0.000001417165     
24.825000762939     1.125771045685     0.000001345999     
24.930000305176     1.120489954948     0.000001280988     
25.034999847412     1.115208029747     0.000001219823     
25.139999389648     1.109927058220     0.000001162121     
25.245000839233     1.104645967484     0.000001110189     
25.350000381470     1.099364042282     0.000001061335     
25.454999923706     1.094248056412     0.000001014404     
25.559999465942     1.088801026344     0.000000972474     
25.665000915527     1.083685040474     0.000000933236     
25.770000457764     1.078402996063     0.000000895537     
25.875000000000     1.073122024536     0.000000860916     
25.979999542236     1.067841053009     0.000000828603     
26.084999084473     1.062559008598     0.000000797828     
26.190000534058     1.057278037071     0.000000769362     
26.295000076294     1.052160978317     0.000000743204     
26.399999618530     1.046880006790     0.000000717430     
26.504999160767     1.041597962379     0.000000693580     
26.610000610352     1.036316990852     0.000000672038     
26.715000152588     1.031034946442     0.000000650880     
26.819999694824     1.025753974915     0.000000630877     
26.924999237061     1.020473003387     0.000000613182     
27.030000686646     1.015190958977     0.000000595486     
27.135000228882     1.009909987450     0.000000578176     
27.239999771118     1.004793047905     0.000000563173     
27.344999313354     0.999512016773     0.000000548170     
27.450000762939     0.994064986706     0.000000533553     
27.555000305176     0.988949000835     0.000000520473     
27.659999847412     0.983668029308     0.000000508164     
27.764999389648     0.978385984898     0.000000495084     
27.870000839233     0.973105013371     0.000000483929     
27.975000381470     0.967823028564     0.000000473158     
28.079999923706     0.962541997433     0.000000462387     
28.184999465942     0.957260012627     0.000000452385     
28.290000915527     0.952144026756     0.000000443153     
28.395000457764     0.946862995625     0.000000433151     
28.500000000000     0.941581010818     0.000000423918     
28.604999542236     0.936299979687     0.000000415840     
28.709999084473     0.931017994881     0.000000407377     
28.815000534058     0.925737023354     0.000000398914     
28.920000076294     0.920454978943     0.000000391990     
29.024999618530     0.915174007416     0.000000384296     
29.129999160767     0.909892976284     0.000000376987     
29.235000610352     0.904610991478     0.000000370448     
29.340000152588     0.899330019951     0.000000363524     
29.444999694824     0.894213020802     0.000000356599     
29.549999237061     0.888931989670     0.000000350829     
29.610000610352     0.880183994770     0.000000341278     
29.715000152588     0.874903023243     0.000000335767     
29.819999694824     0.869621992111     0.000000330508     
29.924999237061     0.864340007305     0.000000324366     
30.030000686646     0.859224021435     0.000000318602     
30.135000228882     0.853941977024     0.000000313848     
30.239999771118     0.848496019840     0.000000308127     
30.344999313354     0.843379020691     0.000000302657     
30.450000762939     0.838097989559     0.000000298114     
30.555000305176     0.832817018032     0.000000292813     
30.659999847412     0.827534973621     0.000000287512     
30.764999389648     0.822254002094     0.000000283221     
30.870000839233     0.816972017288     0.000000278340     
30.975000381470     0.811690986156     0.000000272997     
31.079999923706     0.806573987007     0.000000269211     
31.184999465942     0.801293015480     0.000000264289     
31.290000915527     0.796011984348     0.000000259114     
31.395000457764     0.790729999542     0.000000255244     
31.500000000000     0.785449028015     0.000000250994     
31.604999542236     0.780166983604     0.000000245693     
31.709999084473     0.774886012077     0.000000241739     
31.815000534058     0.769604027271     0.000000237952     
31.920000076294     0.764322996140     0.000000232904     
32.025001525879     0.759207010269     0.000000228865     
32.130001068115     0.753925025463     0.000000225121     
32.235000610352     0.748643994331     0.000000220451     
32.340000152588     0.743362009525     0.000000216034     
32.444999694824     0.738080978394     0.000000212584     
32.549999237061     0.732963979244     0.000000207956     
32.654998779297     0.727518022060     0.000000203454     
32.759998321533     0.722235977650     0.000000200173     
32.865001678467     0.716955006123     0.000000195755     
32.970001220703     0.711839020252     0.000000191254     
33.075000762939     0.706391990185     0.000000187804     
33.180000305176     0.701276004314     0.000000183429     
33.284999847412     0.695994019508     0.000000179180     
33.389999389648     0.690712988377     0.000000175646     
33.494998931885     0.685431003571     0.000000171565     
33.599998474121     0.680149972439     0.000000166685     
33.705001831055     0.674869000912     0.000000163193     
33.810001373291     0.669752001762     0.000000159743     
33.915000915527     0.664470970631     0.000000154610     
34.020000457764     0.659024000168     0.000000151034     
34.125000000000     0.653908014297     0.000000147332     
34.229999542236     0.648626029491     0.000000142788     
34.334999084473     0.643344998360     0.000000138413     
34.439998626709     0.638064026833     0.000000135173     
34.544998168945     0.632781982422     0.000000130672     
34.650001525879     0.627501010895     0.000000126507     
34.755001068115     0.622219026089     0.000000122889     
34.860000610352     0.616937994957     0.000000118387     
34.965000152588     0.611656010151     0.000000113928     
35.069999694824     0.606540024281     0.000000110604     
35.174999237061     0.601258993149     0.000000105892     
