
Cycle 1
Physical Cycle 1
Step 1

Time (s),          Potential (V),         Current (A)
0.104999996722     0.001983999973     -0.000001486649     
0.209999993443     0.007110000122     -0.000001383727     
0.314999997616     0.012400999665     -0.000001292241     
0.419999986887     0.017692999914     -0.000001208379     
0.449999988079     0.027778999880     -0.000001140957     
0.555000007153     0.033070001751     -0.000001074926     
0.660000026226     0.038361001760     -0.000001013117     
0.764999985695     0.043653000146     -0.000000956300     
0.870000004768     0.048944000155     -0.000000902170     
0.975000023842     0.054069999605     -0.000000850343     
1.080000042915     0.059360999614     -0.000000802355     
1.184999942780     0.064652003348     -0.000000758206     
1.289999961853     0.069943003356     -0.000000715593     
1.394999980927     0.075069002807     -0.000000674900     
1.500000000000     0.080360002816     -0.000000636893     
1.605000019073     0.085652001202     -0.000000600039     
1.710000038147     0.090943001211     -0.000000565488     
1.815000057220     0.096234001219     -0.000000533624     
1.919999957085     0.101360000670     -0.000000502912     
2.025000095367     0.106816001236     -0.000000472199     
2.130000114441     0.111942000687     -0.000000443407     
2.234999895096     0.117233999074     -0.000000416918     
2.339999914169     0.122524999082     -0.000000391580     
2.444999933243     0.127816006541     -0.000000367010     
2.549999952316     0.133107006550     -0.000000343592     
2.654999971390     0.138233006001     -0.000000321326     
2.759999990463     0.143524006009     -0.000000299444     
2.795000076294     0.153611004353     -0.000000271692     
2.900000095367     0.158736005425     -0.000000253059     
3.005000114441     0.164028003812     -0.000000235810     
3.109999895096     0.169319003820     -0.000000218772     
3.214999914169     0.174610003829     -0.000000202447     
3.319999933243     0.179736003280     -0.000000188850     
3.424999952316     0.185027003288     -0.000000175001     
3.529999971390     0.190318003297     -0.000000160690     
3.634999990463     0.195610001683     -0.000000146967     
3.740000009537     0.200901001692     -0.000000135342     
3.845000028610     0.206192001700     -0.000000124095     
3.950000047684     0.211318001151     -0.000000112974     
4.054999828339     0.216609001160     -0.000000102776     
4.159999847412     0.221900001168     -0.000000092285     
4.264999866486     0.227191999555     -0.000000082297     
4.369999885559     0.232317000628     -0.000000073819     
4.474999904633     0.237608999014     -0.000000066349     
4.579999923706     0.242899999022     -0.000000057662     
4.684999942780     0.248190999031     -0.000000048975     
4.789999961853     0.253316998482     -0.000000041757     
4.894999980927     0.258608013391     -0.000000034790     
5.000000000000     0.264064997435     -0.000000027866     
5.105000019073     0.269190996885     -0.000000021823     
5.210000038147     0.274482011795     -0.000000015108     
5.239999771118     0.284402996302     -0.000000004185     
5.344999790192     0.289694011211     0.000000002525     
5.449999809265     0.294984996319     0.000000008221     
5.554999828339     0.300110995770     0.000000013576     
5.659999847412     0.305402010679     0.000000020004     
5.764999866486     0.310528010130     0.000000026557     
5.869999885559     0.315818995237     0.000000031967     
5.974999904633     0.320944994688     0.000000038493     
6.079999923706     0.326236993074     0.000000045505     
6.184999942780     0.331528007984     0.000000051806     
6.289999961853     0.336654007435     0.000000058795     
6.394999980927     0.341944992542     0.000000067351     
6.500000000000     0.347070991993     0.000000075255     
6.605000019073     0.352362006903     0.000000083124     
6.710000038147     0.359140992165     0.000000098747     
6.815000057220     0.364432990551     0.000000108526     
6.920000076294     0.369558006525     0.000000117842     
7.025000095367     0.375014990568     0.000000128754     
7.130000114441     0.380140990019     0.000000140546     
7.235000133514     0.385432004929     0.000000152465     
7.340000152588     0.390722990036     0.000000165264     
7.445000171661     0.396014004946     0.000000178694     
7.550000190735     0.401306003332     0.000000191074     
7.655000209808     0.406432002783     0.000000204461     
7.760000228882     0.411722987890     0.000000219066     
7.864999771118     0.417014002800     0.000000233964     
7.969999790192     0.422140002251     0.000000247939     
8.074999809265     0.427430987358     0.000000262837     
8.180000305176     0.432722002268     0.000000277693     
8.284999847412     0.438012987375     0.000000292507     
8.390000343323     0.443138986826     0.000000308455     
8.494999885559     0.448430985212     0.000000325031     
8.600000381470     0.453722000122     0.000000340013     
8.704999923706     0.459012985229     0.000000355163     
8.810000419617     0.464304000139     0.000000372202     
8.914999961853     0.469429999590     0.000000389828     
9.020000457764     0.474721014500     0.000000406447     
9.125000000000     0.480013012886     0.000000423107     
9.229999542236     0.485303997993     0.000000440104     
9.335000038147     0.490595012903     0.000000456932     
9.439999580383     0.495721012354     0.000000474726     
9.545000076294     0.501012027264     0.000000493401     
9.649999618530     0.506303012371     0.000000511321     
9.755000114441     0.511593997478     0.000000528611     
9.859999656677     0.516885995865     0.000000547035     
9.965000152588     0.522011995316     0.000000566423     
10.069999694824     0.527302980423     0.000000585014     
10.175000190735     0.532594025135     0.000000604235     
10.279999732971     0.537720024586     0.000000622826     
10.385000228882     0.543011009693     0.000000640956     
10.489999771118     0.548301994801     0.000000659715     
10.595000267029     0.553592979908     0.000000680363     
10.699999809265     0.558884978294     0.000000699751     
10.805000305176     0.564176023006     0.000000718384     
10.909999847412     0.569302022457     0.000000737479     
11.015000343323     0.574593007565     0.000000757455     
11.119999885559     0.579883992672     0.000000776298     
11.225000381470     0.585174977779     0.000000795771     
11.329999923706     0.590300977230     0.000000815411     
11.435000419617     0.595592975616     0.000000833918     
11.539999961853     0.600884020329     0.000000852006     
11.645000457764     0.606175005436     0.000000871940     
11.750000000000     0.611301004887     0.000000891580     
11.854999542236     0.616591989994     0.000000909668     
11.960000038147     0.621882975101     0.000000928175     
12.064999580383     0.627174019814     0.000000946766     
12.170000076294     0.632300019264     0.000000964392     
12.274999618530     0.637592017651     0.000000983403     
12.380000114441     0.642883002758     0.000001001785     
12.484999656677     0.648173987865     0.000001018739     
12.505000114441     0.659251987934     0.000001068783     
12.609999656677     0.664543986320     0.000001085291     
12.715000152588     0.669669985771     0.000001102183     
12.819999694824     0.674960970879     0.000001117923     
12.925000190735     0.680417001247     0.000001134047     
13.029999732971     0.685708999634     0.000001149403     
13.135000228882     0.690833985806     0.000001165526     
13.239999771118     0.696125984192     0.000001182034     
13.345000267029     0.701417028904     0.000001197390     
13.449999809265     0.706708014011     0.000001211211     
13.555000305176     0.711998999119     0.000001226951     
13.659999847412     0.717289984226     0.000001242307     
13.765000343323     0.722415983677     0.000001256511     
13.869999885559     0.727707982063     0.000001270716     
13.975000381470     0.732999026775     0.000001284536     
14.079999923706     0.738290011883     0.000001297589     
14.185000419617     0.743580996990     0.000001311409     
14.289999961853     0.748871982098     0.000001326381     
14.395000457764     0.753997981548     0.000001339818     
14.500000000000     0.759289026260     0.000001352487     
14.604999542236     0.764581024647     0.000001366307     
14.710000038147     0.769872009754     0.000001380512     
14.814999580383     0.775162994862     0.000001393564     
14.920000076294     0.780453979969     0.000001407769     
15.024999618530     0.785745978355     0.000001421589     
15.130000114441     0.790871024132     0.000001433490     
15.234999656677     0.796163022518     0.000001446159     
15.340000152588     0.801454007626     0.000001461131     
15.444999694824     0.806744992733     0.000001475335     
15.550000190735     0.812035977840     0.000001488004     
15.654999732971     0.817161977291     0.000001501441     
15.760000228882     0.822453022003     0.000001515645     
15.864999771118     0.827745020390     0.000001529849     
15.970000267029     0.833036005497     0.000001544822     
16.075000762939     0.838326990604     0.000001559026     
16.180000305176     0.843617975712     0.000001572463     
16.284999847412     0.848743975163     0.000001586667     
16.389999389648     0.854201018810     0.000001602791     
16.495000839233     0.859327018261     0.000001619299     
16.600000381470     0.864618003368     0.000001634655     
16.704999923706     0.869908988476     0.000001651163     
16.809999465942     0.875199973583     0.000001667286     
16.915000915527     0.880491018295     0.000001683794     
17.020000457764     0.885617017746     0.000001701070     
17.125000000000     0.890908002853     0.000001719881     
17.229999542236     0.896200001240     0.000001737924     
17.334999084473     0.901490986347     0.000001755200     
17.440000534058     0.906781971455     0.000001774011     
17.545000076294     0.912073016167     0.000001793974     
17.649999618530     0.917365014553     0.000001813169     
17.754999160767     0.922490000725     0.000001832364     
17.860000610352     0.927781999111     0.000001851559     
17.965000152588     0.933072984219     0.000001870754     
18.069999694824     0.938364028931     0.000001889566     
18.174999237061     0.943655014038     0.000001910296     
18.280000686646     0.948947012424     0.000001929491     
18.385000228882     0.954071998596     0.000001947535     
18.489999771118     0.959363996983     0.000001965578     
18.594999313354     0.964654982090     0.000001984006     
18.700000762939     0.969780981541     0.000002001665     
18.805000305176     0.975237011909     0.000002019708     
18.909999847412     0.980527997017     0.000002036984     
19.014999389648     0.985653996468     0.000002052340     
19.120000839233     0.990945994854     0.000002066928     
19.225000381470     0.996236979961     0.000002083436     
19.329999923706     1.001528024673     0.000002098408     
19.434999465942     1.006819009781     0.000002111845     
19.540000915527     1.012109994888     0.000002125665     
19.645000457764     1.017235994339     0.000002139870     
19.750000000000     1.022526979446     0.000002153306     
19.854999542236     1.027819037437     0.000002167127     
19.959999084473     1.033110022545     0.000002182099     
20.065000534058     1.038401007652     0.000002195919     
20.170000076294     1.043527007103     0.000002209356     
20.274999618530     1.048984050751     0.000002223560     
20.379999160767     1.054108977318     0.000002239300     
20.485000610352     1.059401035309     0.000002255040     
20.590000152588     1.064692020416     0.000002270780     
20.694999694824     1.069983005524     0.000002287288     
20.799999237061     1.075109004974     0.000002303796     
20.905000686646     1.080399990082     0.000002322991     
21.010000228882     1.085857033730     0.000002344106     
21.114999771118     1.090983033180     0.000002364069     
21.219999313354     1.096274018288     0.000002382880     
21.325000762939     1.101565003395     0.000002406298     
21.430000305176     1.106855988503     0.000002431635     
21.534999847412     1.111981987953     0.000002456589     
21.639999389648     1.117272973061     0.000002483846     
21.745000839233     1.122565031052     0.000002511871     
21.850000381470     1.127856016159     0.000002541431     
21.954999923706     1.133147001266     0.000002572911     
22.059999465942     1.138273000717     0.000002608230     
22.165000915527     1.143563985825     0.000002644317     
22.270000457764     1.148854970932     0.000002681939     
22.375000000000     1.154145956039     0.000002722249     
22.479999542236     1.159438014030     0.000002765630     
22.584999084473     1.164728999138     0.000002810547     
22.690000534058     1.170019984245     0.000002858918     
22.795000076294     1.175310969353     0.000002909593     
22.899999618530     1.180436968803     0.000002961804     
23.004999160767     1.185727953911     0.000003018238     
23.110000610352     1.190853953362     0.000003080814     
23.215000152588     1.196310997009     0.000003144925     
23.319999694824     1.196972012520     0.000003032826     
23.424999237061     1.191681027412     0.000002777531     
23.530000686646     1.186390042305     0.000002559091     
23.635000228882     1.181099057198     0.000002367524     
23.739999771118     1.175973057747     0.000002198991     
23.844999313354     1.170681953430     0.000002050037     
23.950000762939     1.165390014648     0.000001914135     
24.055000305176     1.160099029541     0.000001792438     
24.159999847412     1.154973030090     0.000001685330     
24.264999389648     1.149682044983     0.000001588203     
24.370000839233     1.144390940666     0.000001499137     
24.475000381470     1.139099955559     0.000001418902     
24.579999923706     1.133808016777     0.000001345577     
24.684999465942     1.128682971001     0.000001278778     
24.790000915527     1.123391032219     0.000001218505     
24.895000457764     1.118100047112     0.000001164759     
25.000000000000     1.112808942795     0.000001113316     
25.104999542236     1.107682943344     0.000001065712     
25.209999084473     1.102391958237     0.000001023099     
25.315000534058     1.097100973129     0.000000983941     
25.420000076294     1.091644048691     0.000000947470     
25.524999618530     1.086518049240     0.000000913687     
25.629999160767     1.081226944923     0.000000881823     
25.735000610352     1.075935959816     0.000000851111     
25.840000152588     1.070644021034     0.000000823470     
25.944999694824     1.065518975258     0.000000799668     
26.049999237061     1.060227036476     0.000000775482     
26.155000686646     1.054936051369     0.000000751296     
26.260000228882     1.049644947052     0.000000729414     
26.364999771118     1.044353961945     0.000000709451     
26.469999313354     1.039227962494     0.000000689872     
26.575000762939     1.033936977386     0.000000672212     
26.680000305176     1.028645038605     0.000000654553     
26.784999847412     1.023354053497     0.000000636126     
26.889999389648     1.018062949181     0.000000619234     
26.995000839233     1.012771964073     0.000000605030     
27.100000381470     1.007480978966     0.000000590441     
27.204999923706     1.002354979515     0.000000575469     
27.309999465942     0.997063994408     0.000000560497     
27.415000915527     0.991771996021     0.000000546676     
27.520000457764     0.986481010914     0.000000532856     
27.625000000000     0.981190025806     0.000000520571     
27.729999542236     0.975898981094     0.000000508286     
27.834999084473     0.970772981644     0.000000495234     
27.940000534058     0.965481996536     0.000000481413     
28.045000076294     0.960189998150     0.000000469512     
28.149999618530     0.954899013042     0.000000458763     
28.254999160767     0.949608027935     0.000000446862     
28.360000610352     0.944316983223     0.000000434961     
28.465000152588     0.939190983772     0.000000423060     
28.569999694824     0.933899998665     0.000000410775     
28.674999237061     0.928608000278     0.000000399642     
28.780000686646     0.923317015171     0.000000390044     
28.885000228882     0.918025970459     0.000000379295     
28.989999771118     0.912734985352     0.000000366626     
29.094999313354     0.907608985901     0.000000355877     
29.200000762939     0.902318000793     0.000000345896     
29.305000305176     0.897026002407     0.000000335146     
29.379999160767     0.889090001583     0.000000310805     
29.485000610352     0.883798003197     0.000000299725     
29.590000152588     0.878507018089     0.000000288982     
29.694999694824     0.873381018639     0.000000278952     
29.799999237061     0.868089973927     0.000000268251     
29.905000686646     0.862798988819     0.000000258179     
30.010000228882     0.857508003712     0.000000248107     
30.114999771118     0.852216005325     0.000000236062     
30.219999313354     0.846925020218     0.000000223934     
30.325000762939     0.841633975506     0.000000214575     
30.430000305176     0.836507976055     0.000000204168     
30.534999847412     0.831216990948     0.000000192375     
30.639999389648     0.825926005840     0.000000180582     
30.745000839233     0.820635020733     0.000000169335     
30.850000381470     0.815509021282     0.000000156955     
30.954999923706     0.810217022896     0.000000146170     
31.059999465942     0.804925978184     0.000000134923     
31.165000915527     0.799634993076     0.000000122417     
31.270000457764     0.794508993626     0.000000109197     
31.375000000000     0.789218008518     0.000000098118     
31.479999542236     0.783927023411     0.000000086367     
31.584999084473     0.778635978699     0.000000074029     
31.690000534058     0.773343980312     0.000000061775     
31.795000076294     0.768052995205     0.000000049101     
31.899999618530     0.762926995754     0.000000035252     
32.005001068115     0.757636010647     0.000000023208     
32.110000610352     0.752345025539     0.000000012674     
32.215000152588     0.747053980827     -0.000000001049     
32.319999694824     0.741927981377     -0.000000015905     
32.375000000000     0.733328998089     -0.000000034118     
32.479999542236     0.728204011917     -0.000000048362     
32.584999084473     0.722912013531     -0.000000061812     
32.689998626709     0.717787027359     -0.000000075064     
32.720001220703     0.707203984261     -0.000000110918     
32.825000762939     0.702077984810     -0.000000122291     
32.930000305176     0.696786999702     -0.000000133244     
33.034999847412     0.691496014595     -0.000000146044     
33.139999389648     0.686370015144     -0.000000157794     
33.244998931885     0.681078970432     -0.000000166775     
33.349998474121     0.675786972046     -0.000000173112     
33.455001831055     0.670495986938     -0.000000176721     
33.560001373291     0.665205001831     -0.000000176050     
33.665000915527     0.659914016724     -0.000000170972     
33.770000457764     0.654622972012     -0.000000162495     
33.875000000000     0.649330973625     -0.000000147806     
33.979999542236     0.644039988518     -0.000000126487     
34.084999084473     0.638749003410     -0.000000102608     
34.189998626709     0.633458018303     -0.000000077219     
34.294998168945     0.628166973591     -0.000000049059     
34.400001525879     0.622874975204     -0.000000020480     
34.505001068115     0.617583990097     0.000000006001     
34.610000610352     0.612293004990     0.000000030300     
34.715000152588     0.607167005539     0.000000050486     
34.819999694824     0.601876020432     0.000000064964     
34.924999237061     0.596584975719     0.000000075372     
