
Cycle 1
Physical Cycle 1
Step 1

Time (s),          Potential (V),         Current (A)
0.104999996722     0.002485000063     -0.000000340097     
0.209999993443     0.007619999815     -0.000000320990     
0.314999997616     0.012920999900     -0.000000298062     
0.419999986887     0.018222000450     -0.000000278956     
0.449999988079     0.028161000460     -0.000000244772     
0.555000007153     0.033628001809     -0.000000228197     
0.660000026226     0.038763001561     -0.000000211622     
0.764999985695     0.044064000249     -0.000000196974     
0.795000016689     0.054168999195     -0.000000170363     
0.899999976158     0.059470001608     -0.000000158431     
1.004999995232     0.064770996571     -0.000000145659     
1.110000014305     0.069907002151     -0.000000134400     
1.215000033379     0.075208000839     -0.000000124149     
1.320000052452     0.080508999527     -0.000000112847     
1.424999952316     0.085808999836     -0.000000102806     
1.529999971390     0.090944997966     -0.000000094403     
1.634999990463     0.096245996654     -0.000000085665     
1.740000009537     0.101547002792     -0.000000076422     
1.845000028610     0.106848001480     -0.000000068229     
1.950000047684     0.111983001232     -0.000000060079     
2.055000066757     0.117283999920     -0.000000051424     
2.160000085831     0.122584998608     -0.000000043652     
2.265000104904     0.127885997295     -0.000000037308     
2.369999885559     0.133186995983     -0.000000029787     
2.474999904633     0.138487994671     -0.000000021763     
2.579999923706     0.143622994423     -0.000000014495     
2.684999942780     0.148923993111     -0.000000007562     
2.730000019073     0.158200994134     0.000000005749     
2.835000038147     0.163335993886     0.000000013272     
2.940000057220     0.168636992574     0.000000019730     
3.045000076294     0.173773005605     0.000000027364     
3.150000095367     0.178908005357     0.000000036044     
3.255000114441     0.184043005109     0.000000043571     
3.359999895096     0.189510002732     0.000000051311     
3.464999914169     0.194645002484     0.000000060533     
3.569999933243     0.199946001172     0.000000069225     
3.674999952316     0.204916000366     0.000000077370     
3.740000009537     0.213861003518     0.000000095370     
3.845000028610     0.218996003270     0.000000105075     
3.950000047684     0.224297001958     0.000000114192     
4.054999828339     0.229598000646     0.000000124611     
4.159999847412     0.234898999333     0.000000136585     
4.264999866486     0.240034997463     0.000000147550     
4.369999885559     0.245335996151     0.000000158810     
4.474999904633     0.250636994839     0.000000171203     
4.579999923706     0.255771994591     0.000000182925     
4.684999942780     0.261072993279     0.000000194395     
4.789999961853     0.266373991966     0.000000207503     
4.894999980927     0.271674990654     0.000000221409     
5.000000000000     0.276809990406     0.000000233887     
5.105000019073     0.282110989094     0.000000246869     
5.210000038147     0.287411987782     0.000000261195     
5.315000057220     0.292712986469     0.000000274808     
5.420000076294     0.297847986221     0.000000288546     
5.525000095367     0.303149014711     0.000000304133     
5.630000114441     0.308450013399     0.000000319678     
5.735000133514     0.313751012087     0.000000333962     
5.840000152588     0.318886995316     0.000000349045     
5.945000171661     0.324187994003     0.000000365514     
6.050000190735     0.329488992691     0.000000381311     
6.155000209808     0.334789991379     0.000000397444     
6.260000228882     0.340090990067     0.000000414543     
6.364999771118     0.345225989819     0.000000431306     
6.469999790192     0.350526988506     0.000000446893     
6.574999809265     0.355661988258     0.000000463404     
6.679999828339     0.360962986946     0.000000480840     
6.784999847412     0.366263985634     0.000000497519     
6.889999866486     0.371398985386     0.000000513736     
6.994999885559     0.376866012812     0.000000530878     
7.099999904633     0.382001012564     0.000000546969     
7.204999923706     0.387302011251     0.000000562219     
7.309999942780     0.392603009939     0.000000578352     
7.414999961853     0.397738993168     0.000000595200     
7.519999980927     0.403039991856     0.000000610576     
7.625000000000     0.408340990543     0.000000625533     
7.730000019073     0.413475990295     0.000000641498     
7.835000038147     0.418776988983     0.000000656287     
7.940000057220     0.424077987671     0.000000670445     
8.045000076294     0.429378986359     0.000000685906     
8.149999618530     0.434513986111     0.000000701199     
8.255000114441     0.439815014601     0.000000715063     
8.359999656677     0.445116013288     0.000000728675     
8.465000152588     0.450417011976     0.000000743674     
8.569999694824     0.455718010664     0.000000757244     
8.675000190735     0.460853010416     0.000000771108     
8.779999732971     0.466154009104     0.000000785687     
8.885000228882     0.471455007792     0.000000799887     
8.989999771118     0.476590991020     0.000000812533     
9.095000267029     0.481891989708     0.000000825936     
9.199999809265     0.487192988396     0.000000840346     
9.305000305176     0.492493987083     0.000000853748     
9.409999847412     0.497628986835     0.000000867276     
9.515000343323     0.502929985523     0.000000881519     
9.619999885559     0.508230984211     0.000000894879     
9.725000381470     0.513365983963     0.000000907063     
9.829999923706     0.518666982651     0.000000920549     
9.935000419617     0.523967981339     0.000000934791     
10.039999961853     0.529268980026     0.000000947900     
10.145000457764     0.534403979778     0.000000961008     
10.250000000000     0.539704978466     0.000000974704     
10.354999542236     0.545005977154     0.000000987644     
10.460000038147     0.550306975842     0.000000999702     
10.564999580383     0.555442988873     0.000001012894     
10.670000076294     0.560743987560     0.000001026674     
10.725000381470     0.570020020008     0.000001053870     
10.829999923706     0.575321018696     0.000001065048     
10.935000419617     0.580622017384     0.000001075841     
11.039999961853     0.585923016071     0.000001088176     
11.145000457764     0.591224014759     0.000001100126     
11.250000000000     0.596359014511     0.000001110919     
11.354999542236     0.601660013199     0.000001121712     
11.460000038147     0.606961011887     0.000001133276     
11.564999580383     0.612097024918     0.000001143684     
11.670000076294     0.617563009262     0.000001153706     
11.774999618530     0.622864007950     0.000001164499     
11.880000114441     0.628000020981     0.000001175292     
11.984999656677     0.633301019669     0.000001184158     
12.090000152588     0.638602018356     0.000001192638     
12.194999694824     0.643737018108     0.000001202660     
12.300000190735     0.649204015732     0.000001211140     
12.404999732971     0.654339015484     0.000001219621     
12.510000228882     0.659640014172     0.000001229257     
12.614999771118     0.664775013924     0.000001237738     
12.720000267029     0.670076012611     0.000001245062     
12.824999809265     0.675377011299     0.000001252771     
12.930000305176     0.680678009987     0.000001261251     
13.034999847412     0.685979008675     0.000001268961     
13.140000343323     0.691114008427     0.000001276285     
13.244999885559     0.696581006050     0.000001285150     
13.350000381470     0.701882004738     0.000001292474     
13.454999923706     0.707017004490     0.000001299027     
13.560000419617     0.712318003178     0.000001306737     
13.664999961853     0.717454016209     0.000001314831     
13.770000457764     0.722755014896     0.000001321770     
13.875000000000     0.728055000305     0.000001329094     
13.979999542236     0.733355998993     0.000001337574     
14.085000038147     0.738656997681     0.000001344898     
14.189999580383     0.743793010712     0.000001351451     
14.295000076294     0.749094009399     0.000001359931     
14.399999618530     0.754395008087     0.000001368411     
14.505000114441     0.759530007839     0.000001375735     
14.609999656677     0.764997005463     0.000001382288     
14.715000152588     0.770298004150     0.000001391154     
14.819999694824     0.775433003902     0.000001398478     
14.925000190735     0.780734002590     0.000001405802     
15.029999732971     0.786035001278     0.000001415053     
15.135000228882     0.791335999966     0.000001423148     
15.239999771118     0.796470999718     0.000001430086     
15.345000267029     0.801771998405     0.000001437796     
15.449999809265     0.807072997093     0.000001446276     
15.555000305176     0.812207996845     0.000001453985     
15.659999847412     0.817508995533     0.000001461695     
15.765000343323     0.822809994221     0.000001470560     
15.869999885559     0.828110992908     0.000001477884     
15.975000381470     0.833411991596     0.000001485208     
16.079999923706     0.838712990284     0.000001492918     
16.184999465942     0.844013988972     0.000001501398     
16.290000915527     0.849150002003     0.000001508336     
16.395000457764     0.854451000690     0.000001516046     
16.500000000000     0.859751999378     0.000001524526     
16.604999542236     0.864886999130     0.000001532235     
16.709999084473     0.870187997818     0.000001539174     
16.815000534058     0.875488996506     0.000001546498     
16.920000076294     0.880789995193     0.000001555363     
17.024999618530     0.886090993881     0.000001562687     
17.129999160767     0.891225993633     0.000001569626     
17.235000610352     0.896526992321     0.000001578106     
17.340000152588     0.901827991009     0.000001585430     
17.444999694824     0.907128989697     0.000001591983     
17.549999237061     0.912429988384     0.000001600849     
17.655000686646     0.917730987072     0.000001608943     
17.760000228882     0.922865986824     0.000001616653     
17.864999771118     0.928166985512     0.000001623977     
17.969999313354     0.933467984200     0.000001632072     
18.075000762939     0.938768982887     0.000001640166     
18.180000305176     0.944069981575     0.000001647490     
18.284999847412     0.949204981327     0.000001657127     
18.389999389648     0.954505980015     0.000001665993     
18.495000839233     0.959806978703     0.000001673317     
18.600000381470     0.964942991734     0.000001681411     
18.704999923706     0.970408976078     0.000001691048     
18.809999465942     0.975544989109     0.000001699914     
18.915000915527     0.980845987797     0.000001709165     
19.020000457764     0.986146986485     0.000001719573     
19.125000000000     0.991447985172     0.000001729595     
19.229999542236     0.996582984924     0.000001738461     
19.334999084473     1.001883983612     0.000001749254     
19.440000534058     1.007184982300     0.000001760818     
19.545000076294     1.012485980988     0.000001771225     
19.649999618530     1.017621040344     0.000001782790     
19.754999160767     1.022922039032     0.000001795510     
19.860000610352     1.028223037720     0.000001807845     
19.965000152588     1.033524036407     0.000001819409     
20.069999694824     1.038825035095     0.000001833286     
20.174999237061     1.044126033783     0.000001848319     
20.280000686646     1.049260973930     0.000001862581     
20.385000228882     1.054561972618     0.000001877229     
20.489999771118     1.059862971306     0.000001893419     
20.594999313354     1.065163969994     0.000001909608     
20.700000762939     1.070464968681     0.000001926184     
20.805000305176     1.075765967369     0.000001945072     
20.909999847412     1.080901026726     0.000001964730     
21.014999389648     1.086202025414     0.000001983233     
21.120000839233     1.091338038445     0.000002003663     
21.225000381470     1.096639037132     0.000002026020     
21.329999923706     1.101940035820     0.000002047991     
21.434999465942     1.107241034508     0.000002070734     
21.540000915527     1.112375974655     0.000002096946     
21.645000457764     1.117676973343     0.000002123543     
21.750000000000     1.122977972031     0.000002149755     
21.854999542236     1.128278970718     0.000002177894     
21.959999084473     1.133579969406     0.000002208346     
22.065000534058     1.138880968094     0.000002239955     
22.170000076294     1.144016027451     0.000002272719     
22.274999618530     1.149317026138     0.000002308182     
22.379999160767     1.154618024826     0.000002344416     
22.485000610352     1.159919023514     0.000002381807     
22.590000152588     1.165220022202     0.000002421510     
22.694999694824     1.170354962349     0.000002464682     
22.799999237061     1.175655961037     0.000002508240     
22.905000686646     1.180791974068     0.000002554111     
23.010000228882     1.186092972755     0.000002602680     
23.114999771118     1.191393971443     0.000002652791     
23.219999313354     1.196694970131     0.000002705214     
23.325000762939     1.197854042053     0.000002632746     
23.430000305176     1.192553043365     0.000002430761     
23.534999847412     1.187252044678     0.000002254602     
23.639999389648     1.182116985321     0.000002098102     
23.745000839233     1.176815986633     0.000001958177     
23.850000381470     1.171514987946     0.000001832129     
23.954999923706     1.166380047798     0.000001717645     
24.059999465942     1.161079049110     0.000001614725     
24.165000915527     1.155778050423     0.000001520671     
24.270000457764     1.150642037392     0.000001433555     
24.375000000000     1.145341038704     0.000001354920     
24.479999542236     1.140040040016     0.000001283608     
24.584999084473     1.134904980659     0.000001216922     
24.690000534058     1.129438996315     0.000001155633     
24.795000076294     1.124137997627     0.000001100511     
24.899999618530     1.119001984596     0.000001048473     
25.004999160767     1.113700985909     0.000000999133     
25.110000610352     1.108399987221     0.000000954419     
25.215000152588     1.103098988533     0.000000913945     
25.319999694824     1.097797989845     0.000000875783     
25.424999237061     1.092663049698     0.000000839549     
25.530000686646     1.087362051010     0.000000807170     
25.635000228882     1.082226991653     0.000000775562     
25.739999771118     1.076925992966     0.000000745495     
25.844999313354     1.071624994278     0.000000718898     
25.950000762939     1.066323995590     0.000000694228     
26.055000305176     1.061022996902     0.000000669558     
26.159999847412     1.055888056755     0.000000646430     
26.264999389648     1.050587058067     0.000000626000     
26.370000839233     1.045286059380     0.000000605185     
26.475000381470     1.039984941483     0.000000586297     
26.579999923706     1.034849047661     0.000000569336     
26.684999465942     1.029548048973     0.000000553532     
26.790000915527     1.024247050285     0.000000536571     
26.895000457764     1.018946051598     0.000000521153     
27.000000000000     1.013810992241     0.000000507276     
27.104999542236     1.008344054222     0.000000493399     
27.209999084473     1.003208994865     0.000000479908     
27.315000534058     0.997907996178     0.000000469115     
27.420000076294     0.992606997490     0.000000457165     
27.524999618530     0.987305998802     0.000000444830     
27.629999160767     0.982005000114     0.000000434422     
27.735000610352     0.976870000362     0.000000424786     
27.840000152588     0.971569001675     0.000000414764     
27.944999694824     0.966268002987     0.000000405512     
28.049999237061     0.960967004299     0.000000396647     
28.155000686646     0.955832004547     0.000000387781     
28.260000228882     0.950531005859     0.000000378915     
28.364999771118     0.945064008236     0.000000371591     
28.469999313354     0.939929008484     0.000000364653     
28.575000762939     0.934628009796     0.000000356558     
28.680000305176     0.929491996765     0.000000348849     
28.760000228882     0.921706974506     0.000000338794     
28.864999771118     0.916571021080     0.000000331651     
28.969999313354     0.911270022392     0.000000326442     
29.075000762939     0.905969023705     0.000000320728     
29.180000305176     0.900668025017     0.000000314132     
29.284999847412     0.895367026329     0.000000307872     
29.389999389648     0.890066027641     0.000000302620     
29.495000839233     0.884931027889     0.000000296907     
29.600000381470     0.879630029202     0.000000291193     
29.704999923706     0.874328970909     0.000000286907     
29.809999465942     0.869193971157     0.000000282160     
29.915000915527     0.863892972469     0.000000275816     
30.020000457764     0.858591973782     0.000000270648     
30.125000000000     0.853290975094     0.000000266531     
30.229999542236     0.847989976406     0.000000261952     
30.334999084473     0.842688977718     0.000000257330     
30.440000534058     0.837553977966     0.000000253717     
30.545000076294     0.832252979279     0.000000248844     
30.649999618530     0.826951980591     0.000000243550     
30.754999160767     0.821816027164     0.000000239727     
30.860000610352     0.816349983215     0.000000236282     
30.965000152588     0.811214029789     0.000000231576     
31.069999694824     0.805913984776     0.000000227459     
31.174999237061     0.800612986088     0.000000223930     
31.280000686646     0.795311987400     0.000000219476     
31.385000228882     0.790175974369     0.000000215065     
31.489999771118     0.784874975681     0.000000212292     
31.594999313354     0.779573976994     0.000000208931     
31.700000762939     0.774438977242     0.000000204310     
31.805000305176     0.768971979618     0.000000200024     
31.909999847412     0.763836979866     0.000000197209     
32.014999389648     0.758535981178     0.000000192924     
32.119998931885     0.753234982491     0.000000189353     
32.224998474121     0.747933983803     0.000000186496     
32.330001831055     0.742798984051     0.000000183177     
32.435001373291     0.737497985363     0.000000178472     
32.540000915527     0.732196986675     0.000000174901     
32.645000457764     0.727061986923     0.000000172254     
32.750000000000     0.721760988235     0.000000168515     
32.854999542236     0.716459989548     0.000000164859     
32.959999084473     0.711158990860     0.000000162129     
33.064998626709     0.705857992172     0.000000158221     
33.169998168945     0.700721979141     0.000000154062     
33.275001525879     0.695420980453     0.000000151457     
33.380001068115     0.690119981766     0.000000148810     
33.485000610352     0.684818983078     0.000000144861     
33.590000152588     0.679517984390     0.000000141458     
33.694999694824     0.674382984638     0.000000138601     
33.799999237061     0.669081985950     0.000000134862     
33.904998779297     0.663780987263     0.000000131333     
34.009998321533     0.658479988575     0.000000128980     
34.115001678467     0.653344988823     0.000000126039     
34.220001220703     0.648043990135     0.000000121418     
34.325000762939     0.642742991447     0.000000117385     
34.430000305176     0.637441992760     0.000000115032     
34.534999847412     0.632306993008     0.000000110747     
34.639999389648     0.627005994320     0.000000107091     
34.744998931885     0.621538996696     0.000000104108     
34.849998474121     0.616403996944     0.000000100033     
34.955001831055     0.611102998257     0.000000094950     
35.060001373291     0.605801999569     0.000000091294     
35.165000915527     0.600665986538     0.000000088143     
