
Cycle 1
Physical Cycle 1
Step 1

Time (s),          Potential (V),         Current (A)
0.104999996722     0.002641000086     -0.000000515788     
0.209999993443     0.007922000252     -0.000000477581     
0.314999997616     0.013203999959     -0.000000439375     
0.419999986887     0.018485000357     -0.000000404989     
0.449999988079     0.028552999720     -0.000000346982     
0.555000007153     0.033833999187     -0.000000320055     
0.660000026226     0.038950998336     -0.000000293896     
0.764999985695     0.044231999665     -0.000000271200     
0.795000016689     0.054464999586     -0.000000230716     
0.899999976158     0.059746000916     -0.000000211406     
1.004999995232     0.064862996340     -0.000000193189     
1.110000014305     0.070143997669     -0.000000178338     
1.215000033379     0.075425997376     -0.000000163277     
1.320000052452     0.080706998706     -0.000000148510     
1.424999952316     0.085988000035     -0.000000136478     
1.529999971390     0.091269999743     -0.000000124740     
1.634999990463     0.096551001072     -0.000000112455     
1.740000009537     0.101668000221     -0.000000102737     
1.845000028610     0.106949001551     -0.000000093523     
1.950000047684     0.112231001258     -0.000000083553     
2.055000066757     0.117512002587     -0.000000075307     
2.160000085831     0.122792996466     -0.000000068028     
2.265000104904     0.128075003624     -0.000000059530     
2.369999885559     0.133356004953     -0.000000052504     
2.474999904633     0.138473004103     -0.000000046110     
2.579999923706     0.143754005432     -0.000000038579     
2.684999942780     0.149201005697     -0.000000032184     
2.789999961853     0.154317006469     -0.000000026631     
2.894999980927     0.159597992897     -0.000000019689     
3.000000000000     0.164879992604     -0.000000013042     
3.105000019073     0.170160993934     -0.000000008036     
3.204999923706     0.176597997546     0.000000000277     
3.309999942780     0.181878998876     0.000000006129     
3.414999961853     0.187160998583     0.000000011666     
3.519999980927     0.192276999354     0.000000018896     
3.625000000000     0.197558999062     0.000000025002     
3.730000019073     0.202840000391     0.000000030865     
3.835000038147     0.207956999540     0.000000038169     
3.940000057220     0.213238000870     0.000000044983     
4.045000076294     0.218354001641     0.000000051063     
4.150000095367     0.223636001348     0.000000058886     
4.255000114441     0.228752002120     0.000000066528     
4.360000133514     0.234034001827     0.000000073196     
4.465000152588     0.239315003157     0.000000081350     
4.554999828339     0.246741995215     0.000000093944     
4.659999847412     0.252023994923     0.000000102064     
4.764999866486     0.257304996252     0.000000110436     
4.869999885559     0.262585997581     0.000000120827     
4.974999904633     0.267868012190     0.000000130125     
5.079999923706     0.273149013519     0.000000139717     
5.184999942780     0.278266012669     0.000000151371     
5.289999961853     0.283547013998     0.000000162351     
5.394999980927     0.288828998804     0.000000173163     
5.500000000000     0.294110000134     0.000000185616     
5.605000019073     0.299391001463     0.000000198911     
5.710000038147     0.304672986269     0.000000210859     
5.815000057220     0.309953987598     0.000000224490     
5.920000076294     0.315236002207     0.000000239341     
6.025000095367     0.320351988077     0.000000252761     
6.130000114441     0.325634002686     0.000000267065     
6.235000133514     0.330915004015     0.000000282632     
6.340000152588     0.336196005344     0.000000297230     
6.445000171661     0.341477990150     0.000000311787     
6.550000190735     0.346758991480     0.000000327774     
6.655000209808     0.351875990629     0.000000343172     
6.760000228882     0.357156991959     0.000000358065     
6.864999771118     0.362439006567     0.000000374472     
6.969999790192     0.367720007896     0.000000389618     
7.074999809265     0.373001009226     0.000000404763     
7.179999828339     0.378118008375     0.000000420834     
7.284999847412     0.383399009705     0.000000435853     
7.389999866486     0.388846009970     0.000000450242     
7.494999885559     0.393961995840     0.000000466313     
7.599999904633     0.399244010448     0.000000481627     
7.704999923706     0.404525011778     0.000000495720     
7.809999942780     0.409806013107     0.000000510613     
7.914999961853     0.414923012257     0.000000525969     
8.020000457764     0.420204013586     0.000000539474     
8.125000000000     0.425485998392     0.000000553946     
8.229999542236     0.430766999722     0.000000569176     
8.335000038147     0.436049014330     0.000000582428     
8.439999580383     0.441165000200     0.000000596354     
8.545000076294     0.446446001530     0.000000611163     
8.649999618530     0.451727986336     0.000000624541     
8.755000114441     0.457174003124     0.000000638172     
8.859999656677     0.462291002274     0.000000652602     
8.965000152588     0.467572003603     0.000000665812     
9.069999694824     0.472689002752     0.000000679233     
9.175000190735     0.477970004082     0.000000694042     
9.279999732971     0.483251005411     0.000000707421     
9.385000228882     0.488532990217     0.000000720631     
9.489999771118     0.493813991547     0.000000735187     
9.595000267029     0.499096006155     0.000000749575     
9.699999809265     0.504377007484     0.000000762449     
9.805000305176     0.509658992290     0.000000777090     
9.909999847412     0.514940023422     0.000000791604     
10.015000343323     0.520056009293     0.000000804899     
10.119999885559     0.525337994099     0.000000819834     
10.225000381470     0.530619025230     0.000000835316     
10.329999923706     0.535901010036     0.000000849241     
10.435000419617     0.541181981564     0.000000864555     
10.539999961853     0.546464025974     0.000000880416     
10.645000457764     0.551744997501     0.000000895309     
10.750000000000     0.556860983372     0.000000910875     
10.854999542236     0.562143027782     0.000000927829     
10.960000038147     0.567423999310     0.000000943816     
11.064999580383     0.572705984116     0.000000960140     
11.170000076294     0.577987015247     0.000000978020     
11.274999618530     0.583104014397     0.000000994974     
11.380000114441     0.588549971581     0.000001012266     
11.484999656677     0.593832015991     0.000001030987     
11.574999809265     0.601423978806     0.000001062874     
11.680000305176     0.606540024281     0.000001080569     
11.784999847412     0.611820995808     0.000001098649     
11.890000343323     0.617102980614     0.000001118652     
11.994999885559     0.622384011745     0.000001137117     
12.100000381470     0.627665996552     0.000001155582     
12.204999923706     0.632781982422     0.000001175200     
12.310000419617     0.638064026833     0.000001194050     
12.414999961853     0.643344998360     0.000001211745     
12.520000457764     0.648626029491     0.000001231364     
12.625000000000     0.653908014297     0.000001249829     
12.729999542236     0.659188985825     0.000001267139     
12.835000038147     0.664470970631     0.000001285219     
12.939999580383     0.669752001762     0.000001303684     
13.045000076294     0.675033986568     0.000001319841     
13.149999618530     0.680149972439     0.000001337536     
13.255000114441     0.685431003571     0.000001355231     
13.359999656677     0.690877974033     0.000001371772     
13.465000152588     0.696159005165     0.000001388314     
13.569999694824     0.701276004314     0.000001406778     
13.675000190735     0.706556975842     0.000001423320     
13.779999732971     0.711839020252     0.000001440246     
13.885000228882     0.717119991779     0.000001457941     
13.989999771118     0.722235977650     0.000001475252     
14.095000267029     0.727683007717     0.000001492562     
14.199999809265     0.732798993587     0.000001511412     
14.305000305176     0.738080978394     0.000001529492     
14.409999847412     0.743526995182     0.000001547187     
14.515000343323     0.748643994331     0.000001566421     
14.619999885559     0.753925025463     0.000001585655     
14.725000381470     0.759207010269     0.000001603735     
14.829999923706     0.764487981796     0.000001624123     
14.935000419617     0.769769012928     0.000001644127     
15.039999961853     0.775050997734     0.000001663745     
15.145000457764     0.780332028866     0.000001683749     
15.250000000000     0.785614013672     0.000001706060     
15.354999542236     0.790894985199     0.000001726064     
15.460000038147     0.796177029610     0.000001747221     
15.564999580383     0.801293015480     0.000001769533     
15.670000076294     0.806573987007     0.000001790690     
15.774999618530     0.811855971813     0.000001812617     
15.880000114441     0.817137002945     0.000001836082     
15.984999656677     0.822418987751     0.000001858394     
16.090000152588     0.827700018883     0.000001881090     
16.194999694824     0.832982003689     0.000001905325     
16.299999237061     0.838262975216     0.000001928791     
16.405000686646     0.843544006348     0.000001951871     
16.510000228882     0.848661005497     0.000001976106     
16.614999771118     0.853941977024     0.000002001111     
16.719999313354     0.859389007092     0.000002025345     
16.825000762939     0.864504992962     0.000002050734     
16.930000305176     0.869786977768     0.000002076508     
17.034999847412     0.875068008900     0.000002101128     
17.139999389648     0.880348980427     0.000002127286     
17.245000839233     0.885631024837     0.000002153829     
17.350000381470     0.890747010708     0.000002179218     
17.454999923706     0.896028995514     0.000002205376     
17.559999465942     0.901310026646     0.000002233458     
17.665000915527     0.906592011452     0.000002260001     
17.770000457764     0.911872982979     0.000002286929     
17.875000000000     0.917155027390     0.000002315780     
17.979999542236     0.922435998917     0.000002343477     
18.084999084473     0.927716970444     0.000002371174     
18.190000534058     0.932999014854     0.000002400409     
18.295000076294     0.938279986382     0.000002429261     
18.399999618530     0.943396985531     0.000002458112     
18.504999160767     0.948678016663     0.000002488501     
18.610000610352     0.953960001469     0.000002519661     
18.715000152588     0.959240972996     0.000002548896     
18.819999694824     0.964522004128     0.000002580440     
18.924999237061     0.969803988934     0.000002612753     
19.030000686646     0.975085020065     0.000002643913     
19.135000228882     0.980367004871     0.000002676610     
19.239999771118     0.985482990742     0.000002711232     
19.344999313354     0.990930020809     0.000002744314     
19.450000762939     0.996046006680     0.000002779320     
19.555000305176     1.001327037811     0.000002815480     
19.659999847412     1.006608963013     0.000002852025     
19.764999389648     1.011890053749     0.000002888570     
19.870000839233     1.017171978951     0.000002927422     
19.975000381470     1.022452950478     0.000002965506     
20.079999923706     1.027570009232     0.000003006282     
20.184999465942     1.032850980759     0.000003048597     
20.290000915527     1.038131952286     0.000003090912     
20.395000457764     1.043413996696     0.000003133996     
20.500000000000     1.048694968224     0.000003180543     
20.604999542236     1.053977012634     0.000003226704     
20.709999084473     1.059257984161     0.000003272866     
20.815000534058     1.064540028572     0.000003322490     
20.920000076294     1.069821000099     0.000003374037     
21.024999618530     1.075101971626     0.000003424430     
21.129999160767     1.080219030380     0.000003478286     
21.235000610352     1.085664987564     0.000003533295     
21.340000152588     1.090782046318     0.000003589074     
21.444999694824     1.096063017845     0.000003646391     
21.549999237061     1.101344943047     0.000003705632     
21.655000686646     1.106626033783     0.000003765258     
21.760000228882     1.111742019653     0.000003826422     
21.864999771118     1.117023944855     0.000003890664     
21.969999313354     1.122305035591     0.000003954521     
22.075000762939     1.127586960793     0.000004019532     
22.180000305176     1.132868051529     0.000004087620     
22.284999847412     1.138149976730     0.000004155324     
22.389999389648     1.143430948257     0.000004223797     
22.495000839233     1.148712992668     0.000004294963     
22.600000381470     1.153993964195     0.000004366514     
22.704999923706     1.159109950066     0.000004438834     
22.809999465942     1.164556980133     0.000004514232     
22.915000915527     1.169672966003     0.000004589244     
23.020000457764     1.174955010414     0.000004664642     
23.125000000000     1.180235981941     0.000004742732     
23.229999542236     1.185518026352     0.000004821976     
23.334999084473     1.190798997879     0.000004900451     
23.440000534058     1.196079969406     0.000004981619     
23.545000076294     1.198060989380     0.000004921609     
23.649999618530     1.192945003510     0.000004621173     
23.754999160767     1.187662959099     0.000004347665     
23.860000610352     1.182546973228     0.000004097622     
23.965000152588     1.177265048027     0.000003864890     
24.069999694824     1.171983957291     0.000003648699     
24.174999237061     1.166702032089     0.000003447511     
24.280000686646     1.161420941353     0.000003258248     
24.385000228882     1.156304955482     0.000003081295     
24.489999771118     1.151023030281     0.000002916651     
24.594999313354     1.145742058754     0.000002760856     
24.700000762939     1.140460014343     0.000002613907     
24.805000305176     1.135179042816     0.000002476961     
24.909999847412     1.130061984062     0.000002347708     
25.014999389648     1.124616026878     0.000002224226     
25.120000839233     1.119500041008     0.000002109591     
25.225000381470     1.114217996597     0.000002001880     
25.329999923706     1.108937025070     0.000001898016     
25.434999465942     1.103654980659     0.000001802615     
25.540000915527     1.098374009132     0.000001712600     
25.645000457764     1.093091964722     0.000001626431     
25.750000000000     1.087810993195     0.000001546418     
25.854999542236     1.082528948784     0.000001471405     
25.959999084473     1.077412962914     0.000001399854     
26.065000534058     1.072131991386     0.000001333304     
26.170000076294     1.066849946976     0.000001271371     
26.274999618530     1.061568975449     0.000001212515     
26.379999160767     1.056287050247     0.000001157120     
26.485000610352     1.051005959511     0.000001106727     
26.590000152588     1.045889973640     0.000001058257     
26.694999694824     1.040442943573     0.000001012865     
26.799999237061     1.035326957703     0.000000971320     
26.905000686646     1.030045032501     0.000000932467     
27.010000228882     1.024763941765     0.000000893999     
27.114999771118     1.019482016563     0.000000860916     
27.219999313354     1.014201045036     0.000000828988     
27.325000762939     1.008919000626     0.000000797444     
27.430000305176     1.003638029099     0.000000769362     
27.534999847412     0.998521983624     0.000000743973     
27.639999389648     0.993075013161     0.000000717815     
27.745000839233     0.987959027290     0.000000694734     
27.850000381470     0.982676982880     0.000000672807     
27.954999923706     0.977396011353     0.000000651650     
28.059999465942     0.972114026546     0.000000632031     
28.165000915527     0.966832995415     0.000000614336     
28.270000457764     0.961552023888     0.000000596256     
28.375000000000     0.956269979477     0.000000578945     
28.479999542236     0.950989007950     0.000000563942     
28.584999084473     0.945872008801     0.000000548940     
28.690000534058     0.940590977669     0.000000533937     
28.795000076294     0.935308992863     0.000000521243     
28.899999618530     0.930028021336     0.000000508548     
29.004999160767     0.924746990204     0.000000495084     
29.110000610352     0.919465005398     0.000000483929     
29.215000152588     0.914183974266     0.000000473158     
29.319999694824     0.908901989460     0.000000460848     
29.424999237061     0.903621017933     0.000000450461     
29.530000686646     0.898504018784     0.000000441229     
29.635000228882     0.893058001995     0.000000430843     
29.739999771118     0.887942016125     0.000000421610     
29.844999313354     0.882659971714     0.000000413147     
29.950000762939     0.877379000187     0.000000403915     
30.055000305176     0.872097015381     0.000000394683     
30.159999847412     0.866815984249     0.000000386989     
30.264999389648     0.861533999443     0.000000378911     
30.370000839233     0.856253027916     0.000000370448     
30.475000381470     0.850971996784     0.000000364293     
30.579999923706     0.845690011978     0.000000356599     
30.684999465942     0.840408980846     0.000000349290     
30.700000762939     0.829515993595     0.000000334884     
30.805000305176     0.824234008789     0.000000329036     
30.909999847412     0.818952977657     0.000000323272     
31.014999389648     0.813670992851     0.000000316372     
31.120000839233     0.808390021324     0.000000310230     
31.225000381470     0.803273975849     0.000000305055     
31.329999923706     0.797991991043     0.000000298450     
31.434999465942     0.792711019516     0.000000292098     
31.540000915527     0.787428975105     0.000000287680     
31.645000457764     0.782148003578     0.000000281327     
31.750000000000     0.776866018772     0.000000275564     
31.854999542236     0.771584987640     0.000000271146     
31.959999084473     0.766303002834     0.000000265383     
32.064998626709     0.761187016964     0.000000259745     
32.169998168945     0.755905985832     0.000000255201     
32.275001525879     0.750624001026     0.000000250405     
32.380001068115     0.745343029499     0.000000244263     
32.485000610352     0.740060985088     0.000000239635     
32.590000152588     0.734780013561     0.000000235386     
32.694999694824     0.729498028755     0.000000229538     
32.799999237061     0.724216997623     0.000000224826     
32.904998779297     0.719101011753     0.000000220914     
33.009998321533     0.713819026947     0.000000215487     
33.115001678467     0.708537995815     0.000000210648     
33.220001220703     0.703256011009     0.000000206736     
33.325000762939     0.697974979877     0.000000201477     
33.430000305176     0.692692995071     0.000000197018     
33.534999847412     0.687412023544     0.000000192979     
33.639999389648     0.682130992413     0.000000188435     
33.744998931885     0.676849007607     0.000000183429     
33.849998474121     0.671567976475     0.000000180189     
33.955001831055     0.666450977325     0.000000175730     
34.060001373291     0.661170005798     0.000000171018     
34.165000915527     0.655888020992     0.000000167694     
34.270000457764     0.650606989861     0.000000164244     
34.375000000000     0.645326018333     0.000000158859     
34.479999542236     0.640043973923     0.000000155241     
34.584999084473     0.634763002396     0.000000151834     
34.689998626709     0.629481017590     0.000000146659     
34.794998168945     0.624199986458     0.000000142241     
34.900001525879     0.619082987309     0.000000138329     
35.005001068115     0.613636970520     0.000000133028     
35.110000610352     0.608355998993     0.000000128232     
35.215000152588     0.603238999844     0.000000123899     
