
Cycle 1
Physical Cycle 1
Step 1

Time (s),          Potential (V),         Current (A)
0.104999996722     0.002641000086     -0.000000191032     
0.209999993443     0.007757000159     -0.000000175750     
0.314999997616     0.013039000332     -0.000000160467     
0.419999986887     0.018319999799     -0.000000145185     
0.449999988079     0.028387999162     -0.000000116174     
0.555000007153     0.033668998629     -0.000000104633     
0.660000026226     0.038950998336     -0.000000093477     
0.764999985695     0.044231999665     -0.000000082322     
0.795000016689     0.054299999028     -0.000000063485     
0.899999976158     0.059415999800     -0.000000055449     
1.004999995232     0.064698003232     -0.000000045983     
1.110000014305     0.069978997111     -0.000000037022     
1.215000033379     0.075259998441     -0.000000029870     
1.320000052452     0.080541998148     -0.000000021582     
1.424999952316     0.085822999477     -0.000000012663     
1.529999971390     0.091104999185     -0.000000005637     
1.549999952316     0.101502999663     0.000000011596     
1.654999971390     0.106619000435     0.000000019958     
1.759999990463     0.111900001764     0.000000028386     
1.865000009537     0.117182001472     0.000000038689     
1.970000028610     0.122298002243     0.000000048468     
2.075000047684     0.127415001392     0.000000058220     
2.180000066757     0.132696002722     0.000000070051     
2.285000085831     0.137812003493     0.000000081966     
2.365000009537     0.145899996161     0.000000101853     
2.470000028610     0.151180997491     0.000000115316     
2.575000047684     0.156462997198     0.000000128400     
2.680000066757     0.161578997970     0.000000143882     
2.785000085831     0.166859999299     0.000000159659     
2.890000104904     0.172141999006     0.000000174383     
2.994999885559     0.177423000336     0.000000190623     
3.099999904633     0.182705000043     0.000000207956     
3.204999923706     0.187986001372     0.000000223480     
3.309999942780     0.193268001080     0.000000239930     
3.414999961853     0.198549002409     0.000000257263     
3.519999980927     0.203665003181     0.000000273166     
3.625000000000     0.208947002888     0.000000289026     
3.730000019073     0.214228004217     0.000000305939     
3.835000038147     0.219345003366     0.000000322010     
3.940000057220     0.224791005254     0.000000337786     
4.045000076294     0.229908004403     0.000000354404     
4.150000095367     0.235189005733     0.000000370223     
4.255000114441     0.240470007062     0.000000386000     
4.360000133514     0.245752006769     0.000000403038     
4.465000152588     0.251033008099     0.000000418941     
4.570000171661     0.256314992905     0.000000434718     
4.675000190735     0.261595994234     0.000000451798     
4.780000209808     0.266712993383     0.000000468795     
4.885000228882     0.271993994713     0.000000484361     
4.989999771118     0.277274996042     0.000000502157     
5.094999790192     0.282557010651     0.000000519532     
5.199999809265     0.287672996521     0.000000535561     
5.304999828339     0.292955011129     0.000000552684     
5.409999847412     0.298236012459     0.000000570270     
5.514999866486     0.303517997265     0.000000586509     
5.619999885559     0.308798998594     0.000000603211     
5.724999904633     0.314079999924     0.000000620965     
5.829999923706     0.319362014532     0.000000637373     
5.934999942780     0.324478000402     0.000000653528     
6.039999961853     0.329925000668     0.000000670735     
6.144999980927     0.335040986538     0.000000687100     
6.250000000000     0.340323001146     0.000000702372     
6.355000019073     0.345438987017     0.000000719579     
6.460000038147     0.350719988346     0.000000735356     
6.565000057220     0.356002002954     0.000000750627     
6.670000076294     0.361447989941     0.000000766867     
6.775000095367     0.366564989090     0.000000782222     
6.880000114441     0.371845990419     0.000000796653     
6.985000133514     0.377128005028     0.000000812387     
7.090000152588     0.382243990898     0.000000827238     
7.195000171661     0.387690007687     0.000000840701     
7.300000190735     0.392807006836     0.000000855888     
7.405000209808     0.398088008165     0.000000870445     
7.510000228882     0.403369992971     0.000000883403     
7.614999771118     0.408650994301     0.000000897118     
7.719999790192     0.413933008909     0.000000911590     
7.824999809265     0.419048994780     0.000000924043     
7.929999828339     0.424495011568     0.000000937169     
8.034999847412     0.429612010717     0.000000951137     
8.140000343323     0.434893012047     0.000000963590     
8.244999885559     0.440174996853     0.000000976253     
8.350000381470     0.445455998182     0.000000989926     
8.454999923706     0.450738012791     0.000001002379     
8.560000419617     0.455853998661     0.000001014748     
8.664999961853     0.461299985647     0.000001028042     
8.680000305176     0.472523987293     0.000001059027     
8.784999847412     0.477804988623     0.000001070952     
8.890000343323     0.483085989952     0.000001082108     
8.994999885559     0.488368004560     0.000001094802     
9.100000381470     0.493649005890     0.000001107497     
9.204999923706     0.498766005039     0.000001118652     
9.310000419617     0.504212021828     0.000001130577     
9.414999961853     0.509329020977     0.000001143272     
9.520000457764     0.514609992504     0.000001154428     
9.625000000000     0.519891023636     0.000001165968     
9.729999542236     0.525173008442     0.000001178663     
9.835000038147     0.530453979969     0.000001189818     
9.939999580383     0.535736024380     0.000001200589     
10.045000076294     0.541016995907     0.000001212899     
10.149999618530     0.546298980713     0.000001224440     
10.255000114441     0.551580011845     0.000001234826     
10.359999656677     0.556695997715     0.000001247520     
10.465000152588     0.561977982521     0.000001259061     
10.569999694824     0.567259013653     0.000001270217     
10.675000190735     0.572540998459     0.000001282911     
10.779999732971     0.577822029591     0.000001294836     
10.885000228882     0.583104014397     0.000001306377     
10.989999771118     0.588384985924     0.000001319071     
11.095000267029     0.593500971794     0.000001331381     
11.199999809265     0.598783016205     0.000001342537     
11.305000305176     0.604228973389     0.000001355616     
11.409999847412     0.609345972538     0.000001367926     
11.515000343323     0.614627003670     0.000001378697     
11.619999885559     0.619908988476     0.000001390237     
11.725000381470     0.625190019608     0.000001401778     
11.829999923706     0.630472004414     0.000001411779     
11.935000419617     0.635752975941     0.000001421396     
12.039999961853     0.641034007072     0.000001431398     
12.145000457764     0.646315991879     0.000001440246     
12.250000000000     0.651597023010     0.000001448324     
12.354999542236     0.656879007816     0.000001457172     
12.460000038147     0.662159979343     0.000001464865     
12.564999580383     0.667276978493     0.000001471405     
12.670000076294     0.672558009624     0.000001479483     
12.774999618530     0.677838981152     0.000001486407     
12.880000114441     0.683286011219     0.000001492562     
12.984999656677     0.688401997089     0.000001500256     
13.090000152588     0.693683981895     0.000001506795     
13.194999694824     0.698965013027     0.000001513335     
13.300000190735     0.704246997833     0.000001521029     
13.404999732971     0.709528028965     0.000001528338     
13.510000228882     0.714809000492     0.000001534877     
13.614999771118     0.720090985298     0.000001542571     
13.720000267029     0.725206971169     0.000001551418     
13.824999809265     0.730489015579     0.000001558343     
13.930000305176     0.735769987106     0.000001567190     
14.034999847412     0.741051971912     0.000001576807     
14.140000343323     0.746333003044     0.000001585270     
14.244999885559     0.751613974571     0.000001594503     
14.350000381470     0.756896018982     0.000001605658     
14.454999923706     0.762176990509     0.000001615276     
14.560000419617     0.767293989658     0.000001626047     
14.664999961853     0.772740006447     0.000001637587     
14.770000457764     0.777857005596     0.000001649127     
14.875000000000     0.783303022385     0.000001660668     
14.979999542236     0.788419008255     0.000001674132     
15.085000038147     0.793700993061     0.000001686826     
15.189999580383     0.798982024193     0.000001699136     
15.295000076294     0.804264008999     0.000001713369     
15.399999618530     0.809544980526     0.000001727602     
15.505000114441     0.814827024937     0.000001741066     
15.609999656677     0.820107996464     0.000001756453     
15.715000152588     0.825223982334     0.000001771841     
15.819999694824     0.830671012402     0.000001786843     
15.925000190735     0.835786998272     0.000001803000     
16.030000686646     0.841068983078     0.000001819926     
16.135000228882     0.846350014210     0.000001835698     
16.239999771118     0.851631999016     0.000001852624     
16.344999313354     0.856912970543     0.000001870704     
16.450000762939     0.862195014954     0.000001888014     
16.555000305176     0.867475986481     0.000001905710     
16.659999847412     0.872757017612     0.000001924559     
16.764999389648     0.877874016762     0.000001943408     
16.870000839233     0.883319973946     0.000001961873     
16.975000381470     0.888436973095     0.000001981492     
17.079999923706     0.893718004227     0.000002000726     
17.184999465942     0.898999989033     0.000002020345     
17.290000915527     0.904281020164     0.000002041502     
17.395000457764     0.909561991692     0.000002062275     
17.500000000000     0.914843976498     0.000002082663     
17.604999542236     0.920125007629     0.000002104974     
17.709999084473     0.925242006779     0.000002126901     
17.815000534058     0.930688023567     0.000002148059     
17.920000076294     0.935805022717     0.000002171524     
18.024999618530     0.941085994244     0.000002194605     
18.129999160767     0.946367025375     0.000002217686     
18.235000610352     0.951649010181     0.000002242690     
18.340000152588     0.956929981709     0.000002267694     
18.444999694824     0.962212026119     0.000002292314     
18.549999237061     0.967492997646     0.000002318472     
18.655000686646     0.972774982452     0.000002345400     
18.760000228882     0.977891027927     0.000002371943     
18.864999771118     0.983171999454     0.000002399640     
18.969999313354     0.988453984261     0.000002429261     
19.075000762939     0.993735015392     0.000002458496     
19.180000305176     0.999017000198     0.000002488886     
19.284999847412     1.004297971725     0.000002520815     
19.389999389648     1.009580016136     0.000002552743     
19.495000839233     1.014696002007     0.000002585441     
19.600000381470     1.019976973534     0.000002620062     
19.704999923706     1.025259017944     0.000002655453     
19.809999465942     1.030539989471     0.000002691998     
19.915000915527     1.035822033882     0.000002730081     
20.020000457764     1.041103005409     0.000002769319     
20.125000000000     1.046385049820     0.000002808941     
20.229999542236     1.051666021347     0.000002850871     
20.334999084473     1.056947946548     0.000002894340     
20.440000534058     1.062064051628     0.000002937039     
20.545000076294     1.067510008812     0.000002982816     
20.649999618530     1.072792053223     0.000003030132     
20.754999160767     1.077908039093     0.000003077448     
20.860000610352     1.083189964294     0.000003127072     
20.965000152588     1.088471055031     0.000003178619     
21.069999694824     1.093752980232     0.000003230166     
21.174999237061     1.099033951759     0.000003283252     
21.280000686646     1.104315042496     0.000003338262     
21.385000228882     1.109596967697     0.000003394040     
21.489999771118     1.114712953568     0.000003450973     
21.594999313354     1.119994997978     0.000003510214     
21.700000762939     1.125275969505     0.000003570224     
21.805000305176     1.130558013916     0.000003630619     
21.909999847412     1.135838985443     0.000003693707     
22.014999389648     1.141119956970     0.000003756410     
22.120000839233     1.146402001381     0.000003819498     
22.225000381470     1.151682972908     0.000003886047     
22.329999923706     1.156800031662     0.000003952597     
22.434999465942     1.162081003189     0.000004019147     
22.540000915527     1.167363047600     0.000004088390     
22.645000457764     1.172644019127     0.000004158017     
22.750000000000     1.177924990654     0.000004227260     
22.854999542236     1.183207035065     0.000004298810     
22.959999084473     1.188488006592     0.000004371130     
23.065000534058     1.193770051003     0.000004442681     
23.170000076294     1.198225975037     0.000004488073     
23.274999618530     1.195255041122     0.000004271883     
23.379999160767     1.189973950386     0.000004014531     
23.485000610352     1.184692025185     0.000003778721     
23.590000152588     1.179411053658     0.000003562146     
23.694999694824     1.174129009247     0.000003358650     
23.799999237061     1.168848037720     0.000003169002     
23.905000686646     1.163732051849     0.000002992818     
24.010000228882     1.158285021782     0.000002827405     
24.114999771118     1.153169035912     0.000002671610     
24.219999313354     1.147886991501     0.000002527354     
24.325000762939     1.142606019974     0.000002391177     
24.430000305176     1.137323975563     0.000002262309     
24.534999847412     1.132207989693     0.000002142673     
24.639999389648     1.126762032509     0.000002029577     
24.745000839233     1.121644973755     0.000001921866     
24.850000381470     1.116364002228     0.000001822234     
24.954999923706     1.111081957817     0.000001729141     
25.059999465942     1.105800986290     0.000001639510     
25.165000915527     1.100518941879     0.000001556419     
25.270000457764     1.095237970352     0.000001479868     
25.375000000000     1.089956998825     0.000001406009     
25.479999542236     1.084840059280     0.000001336766     
25.584999084473     1.079558968544     0.000001273679     
25.690000534058     1.074277043343     0.000001212899     
25.795000076294     1.068995952606     0.000001155966     
25.899999618530     1.063714027405     0.000001103650     
26.004999160767     1.058598041534     0.000001054026     
26.110000610352     1.053316950798     0.000001007095     
26.215000152588     1.047870039940     0.000000964395     
26.319999694824     1.042754054070     0.000000924004     
26.424999237061     1.037307024002     0.000000885151     
26.530000686646     1.032191038132     0.000000850530     
26.635000228882     1.026908993721     0.000000817447     
26.739999771118     1.021628022194     0.000000785134     
26.844999313354     1.016345977783     0.000000756668     
26.950000762939     1.011065006256     0.000000729740     
27.055000305176     1.005784034729     0.000000703582     
27.159999847412     1.000501990318     0.000000679347     
27.264999389648     0.995386004448     0.000000657420     
27.370000839233     0.990104019642     0.000000635108     
27.475000381470     0.984822988510     0.000000615105     
27.579999923706     0.979541003704     0.000000596640     
27.684999465942     0.974259972572     0.000000578560     
27.790000915527     0.968979001045     0.000000560865     
27.895000457764     0.963697016239     0.000000545478     
28.000000000000     0.958415985107     0.000000530090     
28.104999542236     0.953298985958     0.000000515088     
28.209999084473     0.948018014431     0.000000502009     
28.315000534058     0.942736029625     0.000000488545     
28.420000076294     0.937454998493     0.000000475466     
28.524999618530     0.932174026966     0.000000463925     
28.629999160767     0.926891982555     0.000000452770     
28.735000610352     0.921611011028     0.000000440844     
28.840000152588     0.916329026222     0.000000430458     
28.944999694824     0.911212980747     0.000000421226     
29.049999237061     0.905930995941     0.000000410455     
29.155000686646     0.900484979153     0.000000400838     
29.260000228882     0.895368993282     0.000000392375     
29.364999771118     0.890087008476     0.000000383142     
29.469999313354     0.884805977345     0.000000374295     
29.575000762939     0.879523992538     0.000000366986     
29.680000305176     0.874243021011     0.000000358523     
29.784999847412     0.868960976601     0.000000350060     
29.799999237061     0.857903003693     0.000000335010     
29.905000686646     0.852787017822     0.000000328994     
30.010000228882     0.847505986691     0.000000322515     
30.114999771118     0.842224001884     0.000000314900     
30.219999313354     0.836942970753     0.000000308842     
30.325000762939     0.831660985947     0.000000302994     
30.430000305176     0.826545000076     0.000000295632     
30.534999847412     0.821263015270     0.000000290036     
30.639999389648     0.815981984138     0.000000284567     
30.745000839233     0.810701012611     0.000000278088     
30.850000381470     0.805419027805     0.000000272114     
30.954999923706     0.800137996674     0.000000267192     
31.059999465942     0.794856011868     0.000000261260     
31.165000915527     0.789740025997     0.000000255454     
31.270000457764     0.784292995930     0.000000250784     
31.375000000000     0.779177010059     0.000000245189     
31.479999542236     0.773895978928     0.000000239467     
31.584999084473     0.768613994122     0.000000234923     
31.690000534058     0.763333022594     0.000000229833     
31.795000076294     0.758050978184     0.000000224237     
31.899999618530     0.752770006657     0.000000220156     
32.005001068115     0.747488021851     0.000000215150     
32.110000610352     0.742206990719     0.000000209386     
32.215000152588     0.737091004848     0.000000205348     
32.319999694824     0.731809020042     0.000000200930     
32.424999237061     0.726363003254     0.000000195293     
32.529998779297     0.721246004105     0.000000190917     
32.634998321533     0.715964972973     0.000000187173     
32.740001678467     0.710682988167     0.000000181662     
32.845001220703     0.705402016640     0.000000177118     
32.950000762939     0.700119972229     0.000000173205     
33.055000305176     0.694839000702     0.000000168451     
33.159999847412     0.689723014832     0.000000163445     
33.264999389648     0.684275984764     0.000000159869     
33.369998931885     0.678995013237     0.000000155241     
33.474998474121     0.673878014088     0.000000150361     
33.580001831055     0.668596982956     0.000000146995     
33.685001373291     0.663314998150     0.000000142326     
33.790000915527     0.658034026623     0.000000137698     
33.895000457764     0.652752995491     0.000000134206     
34.000000000000     0.647471010685     0.000000129873     
34.104999542236     0.642189979553     0.000000125034     
34.209999084473     0.636907994747     0.000000121711     
34.314998626709     0.631627023220     0.000000117967     
34.419998168945     0.626510024071     0.000000112750     
34.525001525879     0.621228992939     0.000000109174     
34.630001068115     0.615948021412     0.000000105598     
34.735000610352     0.610665977001     0.000000100633     
34.840000152588     0.605385005474     0.000000096552     
34.944999694824     0.600103020668     0.000000093397     
35.049999237061     0.594821989536     0.000000088349     
