
Cycle 1
Physical Cycle 1
Step 1

Time (s),          Potential (V),         Current (A)
0.104999996722     0.002644000109     -0.000005321864     
0.209999993443     0.007931999862     -0.000004811548     
0.314999997616     0.013055000454     -0.000004358787     
0.419999986887     0.018342999741     -0.000003948232     
0.524999976158     0.023631000891     -0.000003572210     
0.629999995232     0.028919000179     -0.000003219209     
0.735000014305     0.034207001328     -0.000002893068     
0.839999973774     0.039494998753     -0.000002586111     
0.889999985695     0.048583999276     -0.000002032128     
0.995000004768     0.053706999868     -0.000001774931     
1.100000023842     0.058995001018     -0.000001532772     
1.205000042915     0.064282998443     -0.000001303724     
1.309999942780     0.069571003318     -0.000001089714     
1.414999961853     0.074859000742     -0.000000889586     
1.519999980927     0.079981997609     -0.000000701412     
1.625000000000     0.085270002484     -0.000000525191     
1.730000019073     0.090557999909     -0.000000362852     
1.835000038147     0.095845997334     -0.000000211310     
1.940000057220     0.101134002209     -0.000000071722     
2.045000076294     0.106421999633     0.000000055912     
2.150000095367     0.111544996500     0.000000173136     
2.250000000000     0.117990002036     0.000000304459     
2.355000019073     0.123112000525     0.000000399304     
2.460000038147     0.128399997950     0.000000487058     
2.565000057220     0.133523002267     0.000000567636     
2.670000076294     0.138811007142     0.000000640406     
2.775000095367     0.144098997116     0.000000708827     
2.880000114441     0.149222001433     0.000000771129     
2.984999895096     0.154345005751     0.000000824904     
3.089999914169     0.159632995725     0.000000874923     
3.194999933243     0.164921000600     0.000000920340     
3.299999952316     0.170209005475     0.000000957823     
3.404999971390     0.175331994891     0.000000990282     
3.509999990463     0.180619999766     0.000001018014     
3.615000009537     0.185908004642     0.000001040300     
3.714999914169     0.192848995328     0.000001071205     
3.819999933243     0.198137000203     0.000001081616     
3.924999952316     0.203590005636     0.000001088557     
4.030000209808     0.208877995610     0.000001093570     
4.135000228882     0.214000999928     0.000001095884     
4.239999771118     0.219289004803     0.000001094727     
4.344999790192     0.224576994777     0.000001090485     
4.449999809265     0.229864999652     0.000001085087     
4.554999828339     0.235153004527     0.000001076218     
4.659999847412     0.240440994501     0.000001065035     
4.764999866486     0.245728999376     0.000001051925     
4.869999885559     0.250851988792     0.000001037658     
4.974999904633     0.256139993668     0.000001019149     
5.079999923706     0.261427998543     0.000001000640     
5.184999942780     0.266716003418     0.000000979817     
5.289999961853     0.272004008293     0.000000956295     
5.394999980927     0.277292013168     0.000000930460     
5.500000000000     0.282415002584     0.000000906167     
5.605000019073     0.287703007460     0.000000879560     
5.710000038147     0.292991012335     0.000000851797     
5.815000057220     0.298278987408     0.000000825576     
5.920000076294     0.303566992283     0.000000800126     
6.025000095367     0.308854997158     0.000000773905     
6.130000114441     0.314143002033     0.000000749998     
6.235000133514     0.319265991449     0.000000728404     
6.340000152588     0.324719011784     0.000000707196     
6.445000171661     0.330006986856     0.000000687916     
6.550000190735     0.335130006075     0.000000672106     
6.655000209808     0.340418010950     0.000000656296     
6.760000228882     0.345705986023     0.000000643571     
6.864999771118     0.350993990898     0.000000633546     
6.969999790192     0.356281995773     0.000000625062     
7.074999809265     0.361571013927     0.000000617350     
7.179999828339     0.366692990065     0.000000613109     
7.284999847412     0.371980994940     0.000000609638     
7.389999866486     0.377268999815     0.000000607325     
7.494999885559     0.382557004690     0.000000605782     
7.599999904633     0.387845993042     0.000000606939     
7.704999923706     0.392967998981     0.000000607710     
7.809999942780     0.398422002792     0.000000609253     
7.914999961853     0.403544008732     0.000000612723     
8.020000457764     0.408832013607     0.000000616194     
8.125000000000     0.414121001959     0.000000619278     
8.229999542236     0.419409006834     0.000000624291     
8.335000038147     0.424697011709     0.000000629690     
8.439999580383     0.429984986782     0.000000633546     
8.545000076294     0.435272991657     0.000000639330     
8.649999618530     0.440396010876     0.000000645499     
8.755000114441     0.445683985949     0.000000650512     
8.859999656677     0.450971990824     0.000000656296     
8.965000152588     0.456259995699     0.000000662852     
9.069999694824     0.461548000574     0.000000668636     
9.175000190735     0.466670989990     0.000000674420     
9.279999732971     0.472124010324     0.000000680975     
9.385000228882     0.477246999741     0.000000686759     
9.489999771118     0.482535004616     0.000000691386     
9.595000267029     0.487823009491     0.000000697170     
9.699999809265     0.493111014366     0.000000702954     
9.805000305176     0.498398989439     0.000000707196     
9.909999847412     0.503687024117     0.000000711438     
10.015000343323     0.508975028992     0.000000716836     
10.119999885559     0.514097988605     0.000000720692     
10.225000381470     0.519385993481     0.000000724162     
10.329999923706     0.524673998356     0.000000728018     
10.435000419617     0.529962003231     0.000000731874     
10.539999961853     0.535250008106     0.000000734188     
10.645000457764     0.540538012981     0.000000738044     
10.750000000000     0.545826017857     0.000000741900     
10.854999542236     0.551114022732     0.000000744214     
10.960000038147     0.556236982346     0.000000747684     
11.064999580383     0.561524987221     0.000000751926     
11.170000076294     0.566812992096     0.000000755011     
11.274999618530     0.572100996971     0.000000758481     
11.380000114441     0.577389001846     0.000000763108     
11.484999656677     0.582677006721     0.000000766964     
11.590000152588     0.587965011597     0.000000771206     
11.694999694824     0.593087971210     0.000000776604     
11.800000190735     0.598375976086     0.000000782003     
11.904999732971     0.603663980961     0.000000787401     
12.010000228882     0.608951985836     0.000000793185     
12.114999771118     0.614239990711     0.000000799355     
12.220000267029     0.619527995586     0.000000805525     
12.324999809265     0.624651014805     0.000000812851     
12.430000305176     0.629939019680     0.000000820563     
12.534999847412     0.635227024555     0.000000826347     
12.640000343323     0.640515029430     0.000000830974     
12.744999885559     0.645802974701     0.000000839458     
12.850000381470     0.651090979576     0.000000846784     
12.954999923706     0.656378984451     0.000000850255     
13.060000419617     0.661666989326     0.000000860280     
13.164999961853     0.666954994202     0.000000867992     
13.270000457764     0.672078013420     0.000000875319     
13.375000000000     0.677366018295     0.000000884573     
13.479999542236     0.682654023170     0.000000894985     
13.585000038147     0.687942028046     0.000000904625     
13.689999580383     0.693229973316     0.000000918892     
13.795000076294     0.698352992535     0.000000930460     
13.899999618530     0.703640997410     0.000000940486     
14.005000114441     0.708929002285     0.000000948198     
14.109999656677     0.714217007160     0.000000960537     
14.215000152588     0.719505012035     0.000000969792     
14.319999694824     0.724793970585     0.000000979432     
14.425000190735     0.730081975460     0.000000986758     
14.529999732971     0.735369980335     0.000001002568     
14.635000228882     0.740491986275     0.000001017992     
14.739999771118     0.745945990086     0.000001028403     
14.845000267029     0.751069009304     0.000001039586     
14.949999809265     0.756357014179     0.000001048069     
15.055000305176     0.761645019054     0.000001058480     
15.159999847412     0.766933023930     0.000001065807     
15.265000343323     0.772221028805     0.000001076989     
15.369999885559     0.777508974075     0.000001084701     
15.475000381470     0.782631993294     0.000001098583     
15.579999923706     0.787919998169     0.000001107452     
15.685000419617     0.793208003044     0.000001120177     
15.789999961853     0.798496007919     0.000001124033     
15.895000457764     0.803784012794     0.000001135215     
16.000000000000     0.809072017670     0.000001142156     
16.104999542236     0.814360022545     0.000001153724     
16.209999084473     0.819648027420     0.000001166063     
16.315000534058     0.824935972691     0.000001159123     
16.420000076294     0.830058991909     0.000001139071     
16.524999618530     0.835346996784     0.000001134830     
16.629999160767     0.840635001659     0.000001143698     
16.735000610352     0.845923006535     0.000001151025     
16.840000152588     0.851211011410     0.000001161436     
16.944999694824     0.856499016285     0.000001178403     
17.049999237061     0.861621975899     0.000001188428     
17.155000686646     0.866909980774     0.000001201153     
17.260000228882     0.872197985649     0.000001203081     
17.364999771118     0.877485990524     0.000001209637     
17.469999313354     0.882773995399     0.000001218505     
17.575000762939     0.888062000275     0.000001233544     
17.680000305176     0.893350005150     0.000001232387     
17.784999847412     0.898473024368     0.000001246654     
17.889999389648     0.903761029243     0.000001221976     
17.995000839233     0.909048974514     0.000001193827     
18.100000381470     0.914336979389     0.000001193827     
18.204999923706     0.919624984264     0.000001194984     
18.309999465942     0.924748003483     0.000001195755     
18.415000915527     0.930200994015     0.000001197683     
18.520000457764     0.935324013233     0.000001199997     
18.625000000000     0.940612018108     0.000001205395     
18.729999542236     0.945900022984     0.000001209637     
18.834999084473     0.951188027859     0.000001213107     
18.940000534058     0.956475973129     0.000001218120     
19.045000076294     0.961763978004     0.000001222747     
19.149999618530     0.966886997223     0.000001226603     
19.254999160767     0.972339987755     0.000001231230     
19.360000610352     0.977463006973     0.000001235858     
19.465000152588     0.982751011848     0.000001240485     
19.569999694824     0.988039016724     0.000001244726     
19.674999237061     0.993161976337     0.000001249354     
19.780000686646     0.998449981213     0.000001254752     
19.885000228882     1.003903031349     0.000001258223     
19.989999771118     1.009026050568     0.000001262464     
20.094999313354     1.014479994774     0.000001269019     
20.200000762939     1.019601941109     0.000001273261     
20.305000305176     1.024889945984     0.000001279045     
20.409999847412     1.030177950859     0.000001285600     
20.514999389648     1.035467028618     0.000001290999     
20.620000839233     1.040588974953     0.000001296783     
20.725000381470     1.045876979828     0.000001304495     
20.829999923706     1.051164984703     0.000001311050     
20.934999465942     1.056452989578     0.000001316834     
21.040000915527     1.061741948128     0.000001324932     
21.145000457764     1.067029953003     0.000001333415     
21.250000000000     1.072152018547     0.000001340356     
21.354999542236     1.077605962753     0.000001349225     
21.459999084473     1.082728028297     0.000001358479     
21.565000534058     1.088016986847     0.000001367734     
21.670000076294     1.093304991722     0.000001376988     
21.774999618530     1.098592996597     0.000001388556     
21.879999160767     1.103714942932     0.000001399353     
21.985000610352     1.109169006348     0.000001410536     
22.090000152588     1.114292025566     0.000001422875     
22.194999694824     1.119580030441     0.000001436371     
22.299999237061     1.124868035316     0.000001449482     
22.405000686646     1.130156040192     0.000001464135     
22.510000228882     1.135444045067     0.000001479559     
22.614999771118     1.140732049942     0.000001495754     
22.719999313354     1.146020054817     0.000001511949     
22.825000762939     1.151307940483     0.000001530458     
22.930000305176     1.156430959702     0.000001548582     
23.034999847412     1.161718964577     0.000001567862     
23.139999389648     1.167006969452     0.000001589070     
23.245000839233     1.172294974327     0.000001611821     
23.350000381470     1.177417993546     0.000001633414     
23.454999923706     1.182705998421     0.000001658864     
23.559999465942     1.187994003296     0.000001684314     
23.665000915527     1.193282008171     0.000001711692     
23.770000457764     1.198238968849     0.000001727887     
23.875000000000     1.195760965347     0.000001609893     
23.979999542236     1.190472960472     0.000001478788     
24.084999084473     1.185349941254     0.000001365420     
24.190000534058     1.180062055588     0.000001265935     
24.295000076294     1.174774050713     0.000001177246     
24.399999618530     1.169486045837     0.000001097041     
24.504999160767     1.164198040962     0.000001026475     
24.610000610352     1.159075021744     0.000000962465     
24.715000152588     1.153787016869     0.000000903082     
24.819999694824     1.148499011993     0.000000850640     
24.924999237061     1.143044948578     0.000000802440     
25.030000686646     1.137923002243     0.000000757324     
25.135000228882     1.132634043694     0.000000717222     
25.239999771118     1.127346038818     0.000000680204     
25.344999313354     1.122058033943     0.000000645885     
25.450000762939     1.116770029068     0.000000613494     
25.555000305176     1.111482024193     0.000000584574     
25.659999847412     1.106359004974     0.000000557582     
25.764999389648     1.101071000099     0.000000531747     
25.870000839233     1.095782995224     0.000000508225     
25.975000381470     1.090494990349     0.000000487017     
26.079999923706     1.085206985474     0.000000465808     
26.184999465942     1.079918980598     0.000000446528     
26.290000915527     1.074795961380     0.000000429176     
26.395000457764     1.069507956505     0.000000412595     
26.500000000000     1.064219951630     0.000000396014     
26.604999542236     1.058931946754     0.000000382133     
26.709999084473     1.053809046745     0.000000368636     
26.815000534058     1.048356056213     0.000000354369     
26.920000076294     1.043233036995     0.000000342801     
27.024999618530     1.037945032120     0.000000331619     
27.069999694824     1.028525948524     0.000000318641     
27.174999237061     1.023237943649     0.000000308595     
27.280000686646     1.017950057983     0.000000299604     
27.385000228882     1.012662053108     0.000000290403     
27.489999771118     1.007374048233     0.000000281496     
27.594999313354     1.002086043358     0.000000273857     
27.700000762939     0.996963024139     0.000000266132     
27.805000305176     0.991675019264     0.000000257901     
27.909999847412     0.986387014389     0.000000251528     
28.014999389648     0.981099009514     0.000000245070     
28.120000839233     0.975811004639     0.000000237809     
28.225000381470     0.970522999763     0.000000231605     
28.329999923706     0.965234994888     0.000000226202     
28.434999465942     0.960111975670     0.000000219786     
28.540000915527     0.954823970795     0.000000213792     
28.645000457764     0.949536025524     0.000000208938     
28.750000000000     0.944248020649     0.000000203577     
28.854999542236     0.938960015774     0.000000198217     
28.959999084473     0.933672010899     0.000000193911     
29.065000534058     0.928548991680     0.000000189268     
29.170000076294     0.923260986805     0.000000184034     
29.274999618530     0.917972981930     0.000000179898     
29.379999160767     0.912850022316     0.000000175846     
29.485000610352     0.907562017441     0.000000171076     
29.590000152588     0.902108013630     0.000000166813     
29.694999694824     0.896986007690     0.000000163309     
29.799999237061     0.891698002815     0.000000159088     
29.905000686646     0.886409997940     0.000000154910     
30.010000228882     0.881121993065     0.000000151659     
30.114999771118     0.875832974911     0.000000147861     
30.219999313354     0.870545029640     0.000000143429     
30.325000762939     0.865423023701     0.000000140389     
30.430000305176     0.860135018826     0.000000137561     
30.534999847412     0.854847013950     0.000000133256     
30.639999389648     0.849557995796     0.000000129795     
30.745000839233     0.844269990921     0.000000127093     
30.850000381470     0.838981986046     0.000000123252     
30.954999923706     0.833859980106     0.000000120002     
31.059999465942     0.828571975231     0.000000117596     
31.165000915527     0.823283016682     0.000000114219     
31.270000457764     0.817995011806     0.000000110547     
31.375000000000     0.812707006931     0.000000108395     
31.479999542236     0.807419002056     0.000000105609     
31.584999084473     0.802130997181     0.000000101979     
31.690000534058     0.797007977962     0.000000099362     
31.795000076294     0.791719973087     0.000000096829     
31.899999618530     0.786432027817     0.000000093832     
32.005001068115     0.781144022942     0.000000090962     
32.110000610352     0.775856018066     0.000000088809     
32.215000152588     0.770568013191     0.000000086023     
32.319999694824     0.765280008316     0.000000083280     
32.424999237061     0.759992003441     0.000000081085     
32.529998779297     0.754868984222     0.000000078848     
32.634998321533     0.749580979347     0.000000075429     
32.740001678467     0.744292974472     0.000000073149     
32.845001220703     0.739005029202     0.000000071334     
32.950000762939     0.733717024326     0.000000068380     
33.055000305176     0.728429019451     0.000000065889     
33.159999847412     0.723306000233     0.000000064159     
33.264999389648     0.718017995358     0.000000061500     
33.369998931885     0.712729990482     0.000000058503     
33.474998474121     0.707441985607     0.000000057152     
33.580001831055     0.702153980732     0.000000054873     
33.685001373291     0.696865975857     0.000000051791     
33.790000915527     0.691743016243     0.000000049807     
33.895000457764     0.686455011368     0.000000047697     
34.000000000000     0.681167006493     0.000000044742     
34.104999542236     0.675879001617     0.000000042590     
34.209999084473     0.670590996742     0.000000040648     
34.314998626709     0.665302991867     0.000000038031     
34.419998168945     0.660179972649     0.000000035203     
34.525001525879     0.654726982117     0.000000033388     
34.630001068115     0.649604022503     0.000000030982     
34.735000610352     0.644316017628     0.000000027816     
34.840000152588     0.639028012753     0.000000025748     
34.944999694824     0.633740007877     0.000000023975     
35.049999237061     0.627295017242     0.000000020538     
35.154998779297     0.622007012367     0.000000017780     
35.259998321533     0.616883993149     0.000000015917     
35.365001678467     0.611431002617     0.000000013101     
