
Cycle 1
Physical Cycle 1
Step 1

Time (s),          Potential (V),         Current (A)
0.104999996722     0.002644000109     -0.000002118002     
0.209999993443     0.007766999770     -0.000001922317     
0.314999997616     0.013055000454     -0.000001749654     
0.419999986887     0.018342999741     -0.000001592338     
0.449999988079     0.028423000127     -0.000001259379     
0.555000007153     0.033711001277     -0.000001135601     
0.660000026226     0.038998998702     -0.000001021462     
0.764999985695     0.044121999294     -0.000000915807     
0.870000004768     0.049410000443     -0.000000815936     
0.975000023842     0.054698001593     -0.000000722620     
1.080000042915     0.059985999018     -0.000000637016     
1.184999942780     0.065274000168     -0.000000557196     
1.289999961853     0.070396997035     -0.000000481618     
1.394999980927     0.075850002468     -0.000000413366     
1.500000000000     0.080972999334     -0.000000349742     
1.605000019073     0.086260996759     -0.000000289588     
1.710000038147     0.091549001634     -0.000000235603     
1.815000057220     0.096836999059     -0.000000186632     
1.840000033379     0.107083000243     -0.000000093748     
1.945000052452     0.112370997667     -0.000000056012     
2.049999952316     0.117659002542     -0.000000022582     
2.154999971390     0.122781999409     0.000000008653     
2.259999990463     0.128069996834     0.000000037102     
2.365000009537     0.133358001709     0.000000061837     
2.470000028610     0.138646006584     0.000000084335     
2.575000047684     0.143768996000     0.000000105440     
2.680000066757     0.149057000875     0.000000123295     
2.785000085831     0.154345005751     0.000000139165     
2.890000104904     0.159632995725     0.000000154530     
2.994999885559     0.164921000600     0.000000167910     
3.099999904633     0.170209005475     0.000000179011     
3.204999923706     0.175496995449     0.000000190324     
3.309999942780     0.180619999766     0.000000200580     
3.414999961853     0.185908004642     0.000000208389     
3.519999980927     0.191195994616     0.000000216409     
3.625000000000     0.196318998933     0.000000224429     
3.730000019073     0.201607003808     0.000000230465     
3.835000038147     0.207059994340     0.000000236079     
3.940000057220     0.212182998657     0.000000242199     
4.045000076294     0.217471003532     0.000000246505     
4.150000095367     0.222758993506     0.000000250177     
4.255000114441     0.228046998382     0.000000254524     
4.360000133514     0.233170002699     0.000000257521     
4.465000152588     0.238457992673     0.000000258999     
4.570000171661     0.243745997548     0.000000261194     
4.675000190735     0.249034002423     0.000000262755     
4.780000209808     0.254321992397     0.000000263177     
4.885000228882     0.259609997272     0.000000263389     
4.989999771118     0.264732986689     0.000000264064     
5.094999790192     0.270020991564     0.000000263895     
5.199999809265     0.275308996439     0.000000263389     
5.304999828339     0.280597001314     0.000000263937     
5.409999847412     0.285885006189     0.000000264613     
5.514999866486     0.291173011065     0.000000264148     
5.619999885559     0.296460986137     0.000000265794     
5.724999904633     0.301584005356     0.000000268074     
5.829999923706     0.306872010231     0.000000269678     
5.934999942780     0.312159985304     0.000000272590     
6.039999961853     0.317447990179     0.000000277191     
6.144999980927     0.322735995054     0.000000281328     
6.250000000000     0.328023999929     0.000000286435     
6.355000019073     0.333146989346     0.000000293526     
6.460000038147     0.338434994221     0.000000300153     
6.565000057220     0.343722999096     0.000000307160     
6.670000076294     0.349011003971     0.000000316024     
6.775000095367     0.354299008846     0.000000324888     
6.880000114441     0.359587013721     0.000000333499     
6.985000133514     0.364876002073     0.000000343080     
7.090000152588     0.369998008013     0.000000353422     
7.195000171661     0.375286012888     0.000000363299     
7.300000190735     0.380573987961     0.000000373049     
7.405000209808     0.385861992836     0.000000383686     
7.510000228882     0.391151010990     0.000000393605     
7.614999771118     0.396438986063     0.000000403060     
7.719999790192     0.401560992002     0.000000413655     
7.824999809265     0.406848996878     0.000000423617     
7.929999828339     0.412137001753     0.000000432101     
8.034999847412     0.417425990105     0.000000441725     
8.140000343323     0.422547996044     0.000000451728     
8.244999885559     0.427836000919     0.000000459748     
8.350000381470     0.433124005795     0.000000468528     
8.454999923706     0.438412010670     0.000000477687     
8.560000419617     0.443700999022     0.000000485454     
8.664999961853     0.448989003897     0.000000492967     
8.770000457764     0.454277008772     0.000000501620     
8.875000000000     0.459399014711     0.000000509007     
8.979999542236     0.464686989784     0.000000515423     
9.085000038147     0.469976007938     0.000000523105     
9.189999580383     0.475264012814     0.000000530280     
9.295000076294     0.480551987886     0.000000536148     
9.399999618530     0.485673993826     0.000000542521     
9.505000114441     0.491127997637     0.000000549570     
9.609999656677     0.496250987053     0.000000555606     
9.715000152588     0.501538991928     0.000000560925     
9.819999694824     0.506826996803     0.000000567552     
9.925000190735     0.511949002743     0.000000573208     
10.029999732971     0.517403006554     0.000000578568     
10.135000228882     0.522526025772     0.000000584689     
10.239999771118     0.527813971043     0.000000590851     
10.345000267029     0.533101975918     0.000000595790     
10.449999809265     0.538389980793     0.000000601573     
10.555000305176     0.543513000011     0.000000607946     
10.659999847412     0.548965990543     0.000000613265     
10.765000343323     0.554253995419     0.000000618752     
10.869999885559     0.559377014637     0.000000625548     
10.975000381470     0.564665019512     0.000000631330     
11.079999923706     0.569953024387     0.000000637282     
11.185000419617     0.575241029263     0.000000644415     
11.289999961853     0.580363988876     0.000000651085     
11.395000457764     0.585651993752     0.000000656656     
11.500000000000     0.590939998627     0.000000664465     
11.604999542236     0.596228003502     0.000000672147     
11.710000038147     0.601516008377     0.000000678901     
11.814999580383     0.606804013252     0.000000686330     
11.920000076294     0.612092018127     0.000000694603     
12.024999618530     0.617214977741     0.000000702285     
12.130000114441     0.622502982616     0.000000710643     
12.234999656677     0.627626001835     0.000000719718     
12.340000152588     0.633078992367     0.000000728793     
12.444999694824     0.638366997242     0.000000736770     
12.550000190735     0.643655002117     0.000000746858     
12.654999732971     0.648943006992     0.000000757031     
12.760000228882     0.654066026211     0.000000766022     
12.864999771118     0.659353971481     0.000000776110     
12.970000267029     0.664641976357     0.000000787422     
13.074999809265     0.669929981232     0.000000797257     
13.180000305176     0.675053000450     0.000000808147     
13.284999847412     0.680341005325     0.000000820092     
13.390000343323     0.685629010201     0.000000831404     
13.494999885559     0.690917015076     0.000000842379     
13.600000381470     0.696205019951     0.000000855337     
13.704999923706     0.701493024826     0.000000867536     
13.810000419617     0.706615984440     0.000000879439     
13.914999961853     0.711903989315     0.000000892144     
14.020000457764     0.717191994190     0.000000905905     
14.125000000000     0.722479999065     0.000000918525     
14.229999542236     0.727768003941     0.000000931821     
14.335000038147     0.733056008816     0.000000946088     
14.439999580383     0.738179028034     0.000000959638     
14.545000076294     0.743466973305     0.000000973525     
14.649999618530     0.748754978180     0.000000988467     
14.755000114441     0.754042983055     0.000001003367     
14.859999656677     0.759166002274     0.000001017549     
14.965000152588     0.764454007149     0.000001032871     
15.034999847412     0.773046970367     0.000001056552     
15.140000343323     0.778334975243     0.000001071205     
15.244999885559     0.783622980118     0.000001086244     
15.350000381470     0.788910984993     0.000001102439     
15.454999923706     0.794198989868     0.000001118634     
15.560000419617     0.799322009087     0.000001134058     
15.664999961853     0.804610013962     0.000001151025     
15.770000457764     0.809898018837     0.000001167991     
15.875000000000     0.815351009369     0.000001183801     
15.979999542236     0.820474028587     0.000001200382     
16.084999084473     0.825761973858     0.000001217734     
16.190000534058     0.831049978733     0.000001234701     
16.295000076294     0.836172997952     0.000001250511     
16.399999618530     0.841461002827     0.000001268634     
16.504999160767     0.846749007702     0.000001286372     
16.610000610352     0.852037012577     0.000001302567     
16.715000152588     0.857325017452     0.000001319533     
16.819999694824     0.862447977066     0.000001337271     
16.924999237061     0.867735981941     0.000001353852     
17.030000686646     0.873188972473     0.000001371204     
17.135000228882     0.878477990627     0.000001388942     
17.239999771118     0.883765995502     0.000001406294     
17.344999313354     0.888888001442     0.000001422489     
17.450000762939     0.894176006317     0.000001440613     
17.555000305176     0.899464011192     0.000001458351     
17.659999847412     0.904753029346     0.000001474546     
17.764999389648     0.910040974617     0.000001492284     
17.870000839233     0.915162980556     0.000001510021     
17.975000381470     0.920450985432     0.000001526602     
18.079999923706     0.925738990307     0.000001543954     
18.184999465942     0.931028008461     0.000001562463     
18.290000915527     0.936316013336     0.000001579044     
18.395000457764     0.941604018211     0.000001596782     
18.500000000000     0.946726024151     0.000001615291     
18.604999542236     0.952180027962     0.000001632643     
18.709999084473     0.957302987576     0.000001650381     
18.815000534058     0.962590992451     0.000001668890     
18.920000076294     0.967878997326     0.000001687399     
19.024999618530     0.973001003265     0.000001705522     
19.129999160767     0.978289008141     0.000001724031     
19.235000610352     0.983578026295     0.000001743311     
19.340000152588     0.988865971565     0.000001762206     
19.444999694824     0.994153976440     0.000001781100     
19.549999237061     0.999441981316     0.000001801537     
19.655000686646     1.004564046860     0.000001820817     
19.760000228882     1.010017991066     0.000001840483     
19.864999771118     1.015305995941     0.000001861306     
19.969999313354     1.020594000816     0.000001882514     
20.075000762939     1.025717020035     0.000001902565     
20.180000305176     1.031005024910     0.000001924545     
20.284999847412     1.036293029785     0.000001946910     
20.389999389648     1.041416049004     0.000001968118     
20.495000839233     1.046869039536     0.000001991254     
20.600000381470     1.052157044411     0.000002014776     
20.704999923706     1.057279944420     0.000002038297     
20.809999465942     1.062567949295     0.000002062205     
20.915000915527     1.067855954170     0.000002087655     
21.020000457764     1.073143959045     0.000002113104     
21.125000000000     1.078431963921     0.000002138554     
21.229999542236     1.083554983139     0.000002165546     
21.334999084473     1.088842988014     0.000002193310     
21.440000534058     1.094130992889     0.000002220302     
21.545000076294     1.099418997765     0.000002249222     
21.649999618530     1.104707002640     0.000002279685     
21.754999160767     1.109995007515     0.000002309762     
21.860000610352     1.115283012390     0.000002340225     
21.965000152588     1.120406031609     0.000002373386     
22.069999694824     1.125694036484     0.000002406548     
22.174999237061     1.130982041359     0.000002439710     
22.280000686646     1.136270046234     0.000002475571     
22.385000228882     1.141558051109     0.000002512975     
22.489999771118     1.146846055984     0.000002548836     
22.594999313354     1.152133941650     0.000002588167     
22.700000762939     1.157256960869     0.000002628656     
22.805000305176     1.162544965744     0.000002669144     
22.909999847412     1.167832970619     0.000002711560     
23.014999389648     1.173120975494     0.000002756290     
23.120000839233     1.178408980370     0.000002801020     
23.225000381470     1.183696985245     0.000002848064     
23.329999923706     1.188820004463     0.000002896650     
23.434999465942     1.194272994995     0.000002947549     
23.540000915527     1.198405027390     0.000002956418     
23.645000457764     1.194604039192     0.000002752049     
23.750000000000     1.189316034317     0.000002548450     
23.854999542236     1.184028029442     0.000002367988     
23.959999084473     1.178740024567     0.000002207577     
24.065000534058     1.173617005348     0.000002063747     
24.170000076294     1.168329000473     0.000001932642     
24.274999618530     1.163040995598     0.000001814648     
24.379999160767     1.157752990723     0.000001707450     
24.485000610352     1.152464985847     0.000001609121     
24.590000152588     1.147341966629     0.000001518890     
24.694999694824     1.142053961754     0.000001437142     
24.799999237061     1.136765956879     0.000001361179     
24.905000686646     1.131643056870     0.000001290999     
25.010000228882     1.126355051994     0.000001226603     
25.114999771118     1.120901942253     0.000001167220     
25.219999313354     1.115779042244     0.000001111693     
25.325000762939     1.110491037369     0.000001060408     
25.430000305176     1.105203032494     0.000001014136     
25.534999847412     1.099915027618     0.000000969406     
25.639999389648     1.094627022743     0.000000927375     
25.745000839233     1.089339017868     0.000000890357     
25.850000381470     1.084215998650     0.000000854496     
25.954999923706     1.078927993774     0.000000819792     
26.059999465942     1.073639988899     0.000000788558     
26.165000915527     1.068351984024     0.000000759638     
26.270000457764     1.063063979149     0.000000730718     
26.375000000000     1.057775020599     0.000000705268     
26.479999542236     1.052652955055     0.000000681746     
26.584999084473     1.047364950180     0.000000657839     
26.690000534058     1.042076945305     0.000000635474     
26.795000076294     1.036788940430     0.000000615808     
26.899999618530     1.031499981880     0.000000596913     
27.004999160767     1.026211977005     0.000000577633     
27.110000610352     1.021090030670     0.000000560667     
27.215000152588     1.015802025795     0.000000544471     
27.319999694824     1.010514020920     0.000000528276     
27.424999237061     1.005224943161     0.000000513623     
27.530000686646     0.999936997890     0.000000500127     
27.635000228882     0.994648993015     0.000000485860     
27.739999771118     0.989360988140     0.000000472364     
27.844999313354     0.984238982201     0.000000461181     
27.950000762939     0.978950023651     0.000000448842     
28.055000305176     0.973662018776     0.000000436888     
28.159999847412     0.968374013901     0.000000426863     
28.264999389648     0.963086009026     0.000000416837     
28.370000839233     0.957798004150     0.000000406040     
28.475000381470     0.952509999275     0.000000396400     
28.579999923706     0.947386980057     0.000000387531     
28.684999465942     0.941933989525     0.000000378277     
28.790000915527     0.936810970306     0.000000369408     
28.895000457764     0.931523025036     0.000000362081     
29.000000000000     0.926235020161     0.000000353212     
29.104999542236     0.920947015285     0.000000345500     
29.180000305176     0.913015007973     0.000000341223     
29.284999847412     0.907727003098     0.000000334596     
29.389999389648     0.902603983879     0.000000328307     
29.495000839233     0.897315979004     0.000000320540     
29.600000381470     0.892027974129     0.000000313702     
29.704999923706     0.886574983597     0.000000308257     
29.809999465942     0.881452023983     0.000000301926     
29.915000915527     0.876164019108     0.000000294877     
30.020000457764     0.870876014233     0.000000289347     
30.125000000000     0.865752995014     0.000000283776     
30.229999542236     0.860464990139     0.000000277191     
30.334999084473     0.855176985264     0.000000271535     
30.440000534058     0.849888980389     0.000000266470     
30.545000076294     0.844600975513     0.000000260223     
30.649999618530     0.839478015900     0.000000254778     
30.754999160767     0.834190011024     0.000000250515     
30.860000610352     0.828902006149     0.000000244943     
30.965000152588     0.823614001274     0.000000238780     
31.069999694824     0.818325996399     0.000000234390     
31.174999237061     0.813037991524     0.000000229874     
31.280000686646     0.807749986649     0.000000224091     
31.385000228882     0.802461981773     0.000000219322     
31.489999771118     0.797339022160     0.000000214847     
31.594999313354     0.792051017284     0.000000209402     
31.700000762939     0.786763012409     0.000000204717     
31.805000305176     0.781475007534     0.000000200960     
31.909999847412     0.776187002659     0.000000195473     
32.014999389648     0.770898997784     0.000000190661     
32.119998931885     0.765775978565     0.000000187116     
32.224998474121     0.760487973690     0.000000182261     
32.330001831055     0.755200028419     0.000000177239     
32.435001373291     0.749912023544     0.000000172891     
32.540000915527     0.744624018669     0.000000169008     
32.645000457764     0.739500999451     0.000000164069     
32.750000000000     0.734212994576     0.000000159595     
32.854999542236     0.728924989700     0.000000155838     
32.959999084473     0.723636984825     0.000000151026     
33.064998626709     0.718348979950     0.000000146003     
33.169998168945     0.713060975075     0.000000142500     
33.275001525879     0.707772970200     0.000000138617     
33.380001068115     0.702485024929     0.000000133298     
33.485000610352     0.697197020054     0.000000129668     
33.590000152588     0.692074000835     0.000000125827     
33.694999694824     0.686785995960     0.000000120509     
33.799999237061     0.681497991085     0.000000116668     
33.904998779297     0.676209986210     0.000000112953     
34.009998321533     0.670921027660     0.000000107846     
34.115001678467     0.665633022785     0.000000103878     
34.220001220703     0.660345017910     0.000000100839     
34.325000762939     0.655223011971     0.000000096280     
34.430000305176     0.649935007095     0.000000091511     
34.534999847412     0.644645988941     0.000000088007     
34.639999389648     0.639357984066     0.000000084082     
34.744998931885     0.634235978127     0.000000079228     
34.849998474121     0.628947973251     0.000000075302     
34.955001831055     0.623660027981     0.000000071166     
35.060001373291     0.618371009827     0.000000066269     
35.165000915527     0.613249003887     0.000000061922     
35.270000457764     0.607795000076     0.000000058038     
