
Cycle 1
Physical Cycle 1
Step 1

Time (s),          Potential (V),         Current (A)
0.104999996722     0.002805999946     -0.000000336217     
0.209999993443     0.008086999878     -0.000000298011     
0.314999997616     0.013368999586     -0.000000263625     
0.419999986887     0.018650000915     -0.000000236880     
0.449999988079     0.028718000278     -0.000000180031     
0.555000007153     0.033998999745     -0.000000158104     
0.660000026226     0.039115998894     -0.000000137331     
0.764999985695     0.044397000223     -0.000000119251     
0.795000016689     0.054630000144     -0.000000084689     
0.899999976158     0.059746000916     -0.000000068028     
1.004999995232     0.065027996898     -0.000000051789     
1.110000014305     0.070308998227     -0.000000037443     
1.215000033379     0.075590997934     -0.000000022129     
1.320000052452     0.080871999264     -0.000000006984     
1.424999952316     0.085988000035     0.000000007026     
1.529999971390     0.091269999743     0.000000021919     
1.634999990463     0.096551001072     0.000000037990     
1.740000009537     0.101833000779     0.000000053093     
1.845000028610     0.107114002109     0.000000068954     
1.950000047684     0.112396001816     0.000000086371     
2.055000066757     0.117677003145     0.000000103662     
2.160000085831     0.122957997024     0.000000121206     
2.265000104904     0.128075003624     0.000000140811     
2.369999885559     0.133356004953     0.000000160837     
2.474999904633     0.138638004661     0.000000180778     
2.579999923706     0.143754005432     0.000000203286     
2.684999942780     0.149201005697     0.000000226425     
2.789999961853     0.154482007027     0.000000248807     
2.894999980927     0.159597992897     0.000000273418     
3.000000000000     0.164879992604     0.000000298492     
3.105000019073     0.170160993934     0.000000322599     
3.210000038147     0.175442993641     0.000000347673     
3.315000057220     0.180558994412     0.000000373967     
3.420000076294     0.185840994120     0.000000398032     
3.525000095367     0.191121995449     0.000000422769     
3.630000114441     0.196402996778     0.000000448222     
3.734999895096     0.201684996486     0.000000471908     
3.839999914169     0.206965997815     0.000000495173     
3.944999933243     0.212247997522     0.000000519490     
4.050000190735     0.217363998294     0.000000542503     
4.155000209808     0.222645998001     0.000000565011     
4.260000228882     0.227761998773     0.000000588613     
4.364999771118     0.233208000660     0.000000611625     
4.469999790192     0.238490000367     0.000000633292     
4.574999809265     0.243606001139     0.000000656389     
4.679999828339     0.248888000846     0.000000679612     
4.784999847412     0.254168987274     0.000000701152     
4.889999866486     0.259451001883     0.000000723786     
4.994999885559     0.264566987753     0.000000747262     
5.099999904633     0.269847989082     0.000000769223     
5.204999923706     0.275130003691     0.000000791478     
5.309999942780     0.280411005020     0.000000814911     
5.414999961853     0.285692989826     0.000000836620     
5.519999980927     0.290973991156     0.000000858413     
5.625000000000     0.296090990305     0.000000881089     
5.730000019073     0.301371991634     0.000000903260     
5.835000038147     0.306652992964     0.000000924085     
5.940000057220     0.311935007572     0.000000946383     
6.045000076294     0.317216008902     0.000000968007     
6.150000095367     0.322333008051     0.000000988580     
6.255000114441     0.327614009380     0.000001009867     
6.360000133514     0.332895994186     0.000001030987     
6.454999923706     0.340157985687     0.000001063643     
6.559999942780     0.345438987017     0.000001081338     
6.664999961853     0.350719988346     0.000001100572     
6.769999980927     0.356002002954     0.000001120191     
6.875000000000     0.361283004284     0.000001139810     
6.980000019073     0.366564989090     0.000001157890     
7.085000038147     0.371845990419     0.000001177124     
7.190000057220     0.377128005028     0.000001196358     
7.295000076294     0.382409006357     0.000001213284     
7.400000095367     0.387524992228     0.000001231749     
7.505000114441     0.392807006836     0.000001250598     
7.610000133514     0.398252993822     0.000001267524     
7.715000152588     0.403369992971     0.000001285989     
7.820000171661     0.408650994301     0.000001304453     
7.925000190735     0.413933008909     0.000001321764     
8.029999732971     0.419214010239     0.000001338690     
8.135000228882     0.424495011568     0.000001357539     
8.239999771118     0.429776996374     0.000001375235     
8.345000267029     0.435057997704     0.000001392545     
8.449999809265     0.440340012312     0.000001411395     
8.555000305176     0.445455998182     0.000001430244     
8.659999847412     0.450902998447     0.000001447555     
8.765000343323     0.456183999777     0.000001467173     
8.869999885559     0.461299985647     0.000001486407     
8.975000381470     0.466582000256     0.000001504872     
9.079999923706     0.471863001585     0.000001524491     
9.185000419617     0.477144986391     0.000001544879     
9.289999961853     0.482425987720     0.000001564498     
9.395000457764     0.487708002329     0.000001584886     
9.500000000000     0.492989003658     0.000001606813     
9.604999542236     0.498106002808     0.000001627201     
9.710000038147     0.503386974335     0.000001647973     
9.814999580383     0.508668005466     0.000001670670     
9.920000076294     0.513949990273     0.000001692596     
10.024999618530     0.519231021404     0.000001714908     
10.130000114441     0.524513006210     0.000001738373     
10.234999656677     0.529793977737     0.000001761454     
10.340000152588     0.535076022148     0.000001784150     
10.444999694824     0.540192008018     0.000001808770     
10.550000190735     0.545638024807     0.000001832620     
10.654999732971     0.550755023956     0.000001855701     
10.760000228882     0.556035995483     0.000001881090     
10.864999771118     0.561317980289     0.000001906479     
10.970000267029     0.566599011421     0.000001930714     
11.074999809265     0.571880996227     0.000001956488     
11.180000305176     0.577162027359     0.000001982261     
11.284999847412     0.582442998886     0.000002007650     
11.390000343323     0.587559998035     0.000002033039     
11.494999885559     0.593006014824     0.000002059582     
11.600000381470     0.598123013973     0.000002084586     
11.704999923706     0.603403985500     0.000002109975     
11.810000419617     0.608685970306     0.000002136134     
11.914999961853     0.613967001438     0.000002160753     
12.020000457764     0.619247972965     0.000002184603     
12.125000000000     0.624530017376     0.000002209608     
12.229999542236     0.629810988903     0.000002233073     
12.335000038147     0.634927988052     0.000002254231     
12.439999580383     0.640374004841     0.000002276157     
12.545000076294     0.645491003990     0.000002298084     
12.649999618530     0.650771975517     0.000002317703     
12.755000114441     0.656053006649     0.000002338091     
12.859999656677     0.661334991455     0.000002357710     
12.965000152588     0.666616022587     0.000002375020     
13.069999694824     0.671898007393     0.000002393101     
13.175000190735     0.677178978920     0.000002411181     
13.279999732971     0.682461023331     0.000002428106     
13.385000228882     0.687741994858     0.000002444263     
13.489999771118     0.693023979664     0.000002461574     
13.595000267029     0.698305010796     0.000002477730     
13.699999809265     0.703585982323     0.000002493502     
13.805000305176     0.708868026733     0.000002510044     
13.909999847412     0.714148998260     0.000002526200     
14.015000343323     0.719265997410     0.000002541972     
14.119999885559     0.724547028542     0.000002558513     
14.225000381470     0.729829013348     0.000002575439     
14.329999923706     0.734944999218     0.000002591981     
14.435000419617     0.740391016006     0.000002608907     
14.539999961853     0.745673000813     0.000002626987     
14.645000457764     0.750953972340     0.000002644297     
14.750000000000     0.756070971489     0.000002662377     
14.854999542236     0.761352002621     0.000002681227     
14.960000038147     0.766633987427     0.000002699691     
15.064999580383     0.771915018559     0.000002718925     
15.170000076294     0.777195990086     0.000002740083     
15.274999618530     0.782477974892     0.000002760471     
15.380000114441     0.787759006023     0.000002781244     
15.484999656677     0.792876005173     0.000002803555     
15.590000152588     0.798322021961     0.000002826251     
15.694999694824     0.803604006767     0.000002847409     
15.800000190735     0.808719992638     0.000002871259     
15.904999732971     0.814001023769     0.000002895879     
16.010000228882     0.819283008575     0.000002919729     
16.114999771118     0.824563980103     0.000002945118     
16.219999313354     0.829846024513     0.000002971661     
16.325000762939     0.835126996040     0.000002997434     
16.430000305176     0.840408980846     0.000003024362     
16.534999847412     0.845690011978     0.000003052059     
16.639999389648     0.850971996784     0.000003079371     
16.745000839233     0.856253027916     0.000003107453     
16.850000381470     0.861369013786     0.000003138228     
16.954999923706     0.866650998592     0.000003167463     
17.059999465942     0.871932029724     0.000003197084     
17.165000915527     0.877214014530     0.000003228243     
17.270000457764     0.882494986057     0.000003259787     
17.375000000000     0.887776970863     0.000003290177     
17.479999542236     0.893058001995     0.000003323259     
17.584999084473     0.898173987865     0.000003356342     
17.690000534058     0.903621017933     0.000003389040     
17.795000076294     0.908737003803     0.000003422892     
17.899999618530     0.914018988609     0.000003458667     
18.004999160767     0.919300019741     0.000003492903     
18.110000610352     0.924582004547     0.000003528679     
18.215000152588     0.929862976074     0.000003565608     
18.319999694824     0.935144007206     0.000003600999     
18.424999237061     0.940261006355     0.000003637928     
18.530000686646     0.945707023144     0.000003677550     
18.635000228882     0.950989007950     0.000003715634     
18.739999771118     0.956104993820     0.000003754487     
18.844999313354     0.961386978626     0.000003795263     
18.950000762939     0.966668009758     0.000003836039     
19.055000305176     0.971948981285     0.000003876046     
19.159999847412     0.977231025696     0.000003918361     
19.264999389648     0.982511997223     0.000003961830     
19.370000839233     0.987793982029     0.000004004914     
19.475000381470     0.992910027504     0.000004049152     
19.579999923706     0.998192012310     0.000004095699     
19.684999465942     1.003473043442     0.000004140706     
19.790000915527     1.008754014969     0.000004187637     
19.895000457764     1.014036059380     0.000004236492     
20.000000000000     1.019317030907     0.000004283808     
20.104999542236     1.024598956108     0.000004333431     
20.209999084473     1.029880046844     0.000004386517     
20.315000534058     1.034996986389     0.000004437680     
20.420000076294     1.040277957916     0.000004490766     
20.524999618530     1.045559048653     0.000004546545     
20.629999160767     1.050840973854     0.000004602708     
20.735000610352     1.056121945381     0.000004658487     
20.840000152588     1.061403989792     0.000004717728     
20.944999694824     1.066519975662     0.000004777738     
21.049999237061     1.071802020073     0.000004838902     
21.155000686646     1.077082991600     0.000004901990     
21.260000228882     1.082363963127     0.000004967001     
21.364999771118     1.087646007538     0.000005032012     
21.469999313354     1.092926979065     0.000005100485     
21.575000762939     1.098209023476     0.000005169728     
21.680000305176     1.103489995003     0.000005238971     
21.784999847412     1.108772039413     0.000005311291     
21.889999389648     1.113888025284     0.000005387457     
21.995000839233     1.119168996811     0.000005462470     
22.100000381470     1.124451041222     0.000005539791     
22.204999923706     1.129732012749     0.000005619805     
22.309999465942     1.135014057159     0.000005701357     
22.415000915527     1.140295028687     0.000005782909     
22.520000457764     1.145576953888     0.000005867924     
22.625000000000     1.150858044624     0.000005954862     
22.729999542236     1.156139969826     0.000006042954     
22.834999084473     1.161255955696     0.000006133739     
22.940000534058     1.166537046432     0.000006226831     
23.045000076294     1.171818971634     0.000006319924     
23.149999618530     1.177099943161     0.000006416479     
23.254999160767     1.182381987572     0.000006514188     
23.360000610352     1.187662959099     0.000006612666     
23.465000152588     1.192945003510     0.000006714222     
23.569999694824     1.198060989380     0.000006808084     
23.674999237061     1.196409940720     0.000006551502     
23.780000686646     1.190963983536     0.000006170668     
23.885000228882     1.185847997665     0.000005821378     
23.989999771118     1.180565953255     0.000005494783     
24.094999313354     1.175284981728     0.000005189347     
24.200000762939     1.170003056526     0.000004904683     
24.305000305176     1.164886951447     0.000004638099     
24.409999847412     1.159605026245     0.000004385748     
24.514999389648     1.154324054718     0.000004150708     
24.620000839233     1.149042963982     0.000003929901     
24.725000381470     1.143926024437     0.000003719865     
24.829999923706     1.138645052910     0.000003524832     
24.934999465942     1.133363008499     0.000003340570     
25.040000915527     1.128082036972     0.000003165540     
25.145000457764     1.122799992561     0.000003000512     
25.250000000000     1.117684006691     0.000002847024     
25.354999542236     1.112403035164     0.000002700076     
25.459999084473     1.107120990753     0.000002561975     
25.565000534058     1.101840019226     0.000002433877     
25.670000076294     1.096557974815     0.000002311163     
25.774999618530     1.091277003288     0.000002194990     
25.879999160767     1.085994958878     0.000002087279     
25.985000610352     1.080878973007     0.000001984569     
26.090000152588     1.075598001480     0.000001887245     
26.194999694824     1.070150971413     0.000001796460     
26.299999237061     1.064869999886     0.000001710676     
26.405000686646     1.059752941132     0.000001629509     
26.510000228882     1.054471969604     0.000001553342     
26.614999771118     1.049190044403     0.000001482176     
26.719999313354     1.043908953667     0.000001413703     
26.825000762939     1.038627982140     0.000001349846     
26.930000305176     1.033346056938     0.000001290220     
27.034999847412     1.028229951859     0.000001232903     
27.139999389648     1.022948026657     0.000001179432     
27.245000839233     1.017667055130     0.000001130577     
27.350000381470     1.012549996376     0.000001082492     
27.454999923706     1.007104039192     0.000001036331     
27.559999465942     1.001822948456     0.000000995554     
27.665000915527     0.996706008911     0.000000955548     
27.770000457764     0.991424977779     0.000000917464     
27.875000000000     0.986142992973     0.000000882458     
27.979999542236     0.980862021446     0.000000848991     
28.084999084473     0.975579977036     0.000000816678     
28.190000534058     0.970299005508     0.000000787057     
28.295000076294     0.965183019638     0.000000758591     
28.399999618530     0.959735989571     0.000000731279     
28.504999160767     0.954620003700     0.000000705505     
28.610000610352     0.949338018894     0.000000682039     
28.715000152588     0.944056987762     0.000000658574     
28.819999694824     0.938775002956     0.000000636647     
28.924999237061     0.933493971825     0.000000616644     
29.030000686646     0.928213000298     0.000000596256     
29.135000228882     0.922931015491     0.000000577022     
29.239999771118     0.917649984360     0.000000560096     
29.344999313354     0.912367999554     0.000000542016     
29.450000762939     0.907087028027     0.000000525474     
29.555000305176     0.901804983616     0.000000510472     
29.659999847412     0.896688997746     0.000000495469     
29.764999389648     0.891408026218     0.000000480082     
29.870000839233     0.886125981808     0.000000467003     
29.975000381470     0.880845010281     0.000000454308     
30.079999923706     0.875563025475     0.000000440844     
30.184999465942     0.870281994343     0.000000428535     
30.290000915527     0.865000009537     0.000000417764     
30.395000457764     0.859718978405     0.000000405454     
30.500000000000     0.854436993599     0.000000395067     
30.604999542236     0.849156022072     0.000000385066     
30.709999084473     0.844039976597     0.000000373910     
30.815000534058     0.838757991791     0.000000363908     
30.920000076294     0.833477020264     0.000000355445     
31.024999618530     0.828194975853     0.000000345444     
31.139999389648     0.816972017288     0.000000326217     
31.245000839233     0.811690986156     0.000000318981     
31.350000381470     0.806409001350     0.000000311492     
31.454999923706     0.801293015480     0.000000303288     
31.559999465942     0.795846998692     0.000000295127     
31.665000915527     0.790729999542     0.000000288437     
31.770000457764     0.785283982754     0.000000279939     
31.875000000000     0.780166983604     0.000000272535     
31.979999542236     0.774886012077     0.000000266014     
32.084999084473     0.769604027271     0.000000258609     
32.189998626709     0.764322996140     0.000000251036     
32.294998168945     0.759207010269     0.000000245273     
32.400001525879     0.753925025463     0.000000238626     
32.505001068115     0.748643994331     0.000000231053     
32.610000610352     0.743362009525     0.000000224868     
32.715000152588     0.737915992737     0.000000218979     
32.819999694824     0.732798993587     0.000000211364     
32.924999237061     0.727518022060     0.000000205516     
33.029998779297     0.722235977650     0.000000199668     
33.134998321533     0.717119991779     0.000000192768     
33.240001678467     0.711839020252     0.000000186626     
33.345001220703     0.706556975842     0.000000181325     
33.450000762939     0.701276004314     0.000000174299     
33.555000305176     0.695994019508     0.000000168073     
33.659999847412     0.690712988377     0.000000163151     
33.764999389648     0.685431003571     0.000000156209     
33.869998931885     0.680149972439     0.000000149646     
33.974998474121     0.674869000912     0.000000144766     
34.080001831055     0.669752001762     0.000000138665     
34.185001373291     0.664305984974     0.000000131850     
34.290000915527     0.659024000168     0.000000126675     
34.395000457764     0.653743028641     0.000000121038     
34.500000000000     0.648626029491     0.000000114138     
34.604999542236     0.643344998360     0.000000109005     
34.709999084473     0.638064026833     0.000000103915     
34.814998626709     0.632781982422     0.000000097099     
34.919998168945     0.627501010895     0.000000091420     
35.025001525879     0.622384011745     0.000000086077     
35.130001068115     0.616937994957     0.000000079430     
35.235000610352     0.611656010151     0.000000073624     
35.340000152588     0.606540024281     0.000000068828     
