
Cycle 1
Physical Cycle 1
Step 1

Time (s),          Potential (V),         Current (A)
0.104999996722     0.001818999997     -0.000001395163     
0.209999993443     0.007110000122     -0.000001307489     
0.314999997616     0.012236000039     -0.000001227438     
0.419999986887     0.017526999116     -0.000001151200     
0.449999988079     0.027613999322     -0.000001097576     
0.555000007153     0.032905001193     -0.000001035768     
0.660000026226     0.038196001202     -0.000000978950     
0.764999985695     0.043487001210     -0.000000924436     
0.870000004768     0.048778001219     -0.000000873377     
0.975000023842     0.053904000670     -0.000000826541     
1.080000042915     0.059195000678     -0.000000782008     
1.184999942780     0.064487002790     -0.000000738627     
1.289999961853     0.069778002799     -0.000000697550     
1.394999980927     0.075069002807     -0.000000659928     
1.500000000000     0.080360002816     -0.000000623841     
1.605000019073     0.085486002266     -0.000000589290     
1.710000038147     0.090943001211     -0.000000557426     
1.815000057220     0.096069000661     -0.000000526330     
1.919999957085     0.101360000670     -0.000000495234     
2.025000095367     0.106651000679     -0.000000466441     
2.130000114441     0.111777000129     -0.000000440719     
2.234999895096     0.117068000138     -0.000000414998     
2.339999914169     0.122359000146     -0.000000390428     
2.444999933243     0.127651005983     -0.000000367010     
2.549999952316     0.132942005992     -0.000000344744     
2.654999971390     0.138233006001     -0.000000322094     
2.759999990463     0.143524006009     -0.000000301747     
2.779999971390     0.154107004404     -0.000000271734     
2.884999990463     0.159398004413     -0.000000254192     
2.990000009537     0.164689004421     -0.000000237531     
3.095000028610     0.169815003872     -0.000000220828     
3.200000047684     0.175106003881     -0.000000204000     
3.305000066757     0.180397003889     -0.000000189815     
3.410000085831     0.185689002275     -0.000000176470     
3.515000104904     0.190980002284     -0.000000162621     
3.619999885559     0.196271002293     -0.000000149275     
3.724999904633     0.201397001743     -0.000000136979     
3.829999923706     0.206688001752     -0.000000124557     
3.934999942780     0.211979001760     -0.000000112261     
4.039999961853     0.217271000147     -0.000000102105     
4.144999980927     0.222396001220     -0.000000092117     
4.250000000000     0.227853000164     -0.000000080954     
4.355000019073     0.232978999615     -0.000000070042     
4.460000038147     0.238269999623     -0.000000060096     
4.565000057220     0.243560999632     -0.000000049856     
4.670000076294     0.248686999083     -0.000000039868     
4.775000095367     0.253978013992     -0.000000030887     
4.880000114441     0.259270012379     -0.000000021445     
4.985000133514     0.264560997486     -0.000000010324     
5.090000152588     0.269852012396     0.000000000588     
5.110000133514     0.280104011297     0.000000019085     
5.215000152588     0.285394996405     0.000000030521     
5.320000171661     0.290520995855     0.000000041141     
5.425000190735     0.295812010765     0.000000051986     
5.530000209808     0.300938010216     0.000000064398     
5.635000228882     0.306064009666     0.000000076956     
5.695000171661     0.315158009529     0.000000101685     
5.800000190735     0.320448994637     0.000000115576     
5.905000209808     0.325574994087     0.000000129635     
6.010000228882     0.330866008997     0.000000146002     
6.114999771118     0.336158007383     0.000000164005     
6.219999790192     0.341448992491     0.000000181673     
6.324999809265     0.346740007401     0.000000199635     
6.429999828339     0.351866006851     0.000000219863     
6.534999847412     0.357156991959     0.000000241392     
6.639999866486     0.362448006868     0.000000263592     
6.744999885559     0.367574006319     0.000000286716     
6.849999904633     0.373030990362     0.000000310763     
6.954999923706     0.378156989813     0.000000333886     
7.059999942780     0.383448004723     0.000000358479     
7.164999961853     0.388738989830     0.000000384078     
7.269999980927     0.393864989281     0.000000409972     
7.375000000000     0.399156004190     0.000000434732     
7.480000019073     0.404446989298     0.000000460416     
7.585000038147     0.409738987684     0.000000485134     
7.690000057220     0.414864003658     0.000000508593     
7.795000076294     0.420156002045     0.000000532388     
7.900000095367     0.425446987152     0.000000557736     
8.005000114441     0.430738002062     0.000000581237     
8.109999656677     0.436028987169     0.000000603228     
8.215000152588     0.441154986620     0.000000625302     
8.319999694824     0.446446001530     0.000000647125     
8.425000190735     0.451737999916     0.000000667311     
8.529999732971     0.456862986088     0.000000687917     
8.635000228882     0.462155014277     0.000000709278     
8.739999771118     0.467445999384     0.000000728750     
8.845000267029     0.472737014294     0.000000746922     
8.949999809265     0.478027999401     0.000000765429     
9.055000305176     0.483153998852     0.000000783852     
9.159999847412     0.488445013762     0.000000801604     
9.265000343323     0.493737012148     0.000000819440     
9.369999885559     0.499027997255     0.000000837527     
9.475000381470     0.504154026508     0.000000853475     
9.579999923706     0.509445011616     0.000000869464     
9.685000419617     0.514735996723     0.000000886083     
9.789999961853     0.520026981831     0.000000902744     
9.895000457764     0.525318980217     0.000000918313     
10.000000000000     0.530610024929     0.000000934638     
10.104999542236     0.535736024380     0.000000950669     
10.210000038147     0.541027009487     0.000000964644     
10.314999580383     0.546317994595     0.000000979710     
10.420000076294     0.551608979702     0.000000996203     
10.524999618530     0.556900024414     0.000001011605     
10.630000114441     0.562026023865     0.000001026041     
10.675000190735     0.571946978569     0.000001068399     
10.779999732971     0.577238976955     0.000001082220     
10.885000228882     0.582364022732     0.000001096040     
10.989999771118     0.587656021118     0.000001110628     
11.095000267029     0.592947006226     0.000001126368     
11.199999809265     0.598237991333     0.000001140189     
11.305000305176     0.603528976440     0.000001154393     
11.409999847412     0.608654975891     0.000001169749     
11.515000343323     0.614112019539     0.000001185105     
11.619999885559     0.619238018990     0.000001199694     
11.725000381470     0.624529004097     0.000001214666     
11.829999923706     0.629819989204     0.000001229638     
11.935000419617     0.635110974312     0.000001243842     
12.039999961853     0.640402019024     0.000001258431     
12.145000457764     0.645528018475     0.000001274555     
12.250000000000     0.650820016861     0.000001289911     
12.354999542236     0.656111001968     0.000001304499     
12.460000038147     0.661401987076     0.000001319471     
12.564999580383     0.666692972183     0.000001334443     
12.670000076294     0.671984016895     0.000001349032     
12.774999618530     0.677276015282     0.000001364004     
12.880000114441     0.682567000389     0.000001380512     
12.984999656677     0.687857985497     0.000001395100     
13.090000152588     0.692983984947     0.000001409304     
13.194999694824     0.698275029659     0.000001424276     
13.300000190735     0.703566014767     0.000001439249     
13.404999732971     0.708858013153     0.000001454221     
13.510000228882     0.714148998260     0.000001469193     
13.614999771118     0.719439983368     0.000001485317     
13.720000267029     0.724731028080     0.000001499905     
13.824999809265     0.729857027531     0.000001513726     
13.930000305176     0.735314011574     0.000001529466     
14.034999847412     0.740440011024     0.000001545206     
14.140000343323     0.745730996132     0.000001559794     
14.244999885559     0.751021981239     0.000001575534     
14.350000381470     0.756147980690     0.000001591274     
14.454999923706     0.761439025402     0.000001604710     
14.560000419617     0.766730010509     0.000001620066     
14.664999961853     0.772020995617     0.000001636190     
14.770000457764     0.777312994003     0.000001651930     
14.875000000000     0.782603979111     0.000001666902     
14.979999542236     0.787895023823     0.000001682259     
15.085000038147     0.793021023273     0.000001696847     
15.189999580383     0.798312008381     0.000001710667     
15.295000076294     0.803602993488     0.000001726023     
15.399999618530     0.808894991875     0.000001742915     
15.505000114441     0.814185976982     0.000001757119     
15.609999656677     0.819311976433     0.000001770556     
15.715000152588     0.824603021145     0.000001785912     
15.819999694824     0.829894006252     0.000001800500     
15.925000190735     0.835184991360     0.000001814705     
16.030000686646     0.840476989746     0.000001830061     
16.135000228882     0.845601975918     0.000001845801     
16.239999771118     0.851059019566     0.000001860773     
16.344999313354     0.856185019016     0.000001874210     
16.450000762939     0.861640989780     0.000001889950     
16.555000305176     0.866766989231     0.000001905690     
16.659999847412     0.872058987617     0.000001922197     
16.764999389648     0.877349972725     0.000001938321     
16.870000839233     0.882641017437     0.000001954061     
16.975000381470     0.887932002544     0.000001969033     
17.079999923706     0.893058001995     0.000001985925     
17.184999465942     0.898348987103     0.000002003585     
17.290000915527     0.903639972210     0.000002021628     
17.395000457764     0.908931970596     0.000002038520     
17.500000000000     0.914223015308     0.000002056563     
17.604999542236     0.919514000416     0.000002073839     
17.709999084473     0.924639999866     0.000002091114     
17.815000534058     0.929930984974     0.000002109925     
17.920000076294     0.935222029686     0.000002131424     
18.024999618530     0.940514028072     0.000002150235     
18.129999160767     0.945640027523     0.000002168662     
18.235000610352     0.951095998287     0.000002188241     
18.340000152588     0.956386983395     0.000002209740     
18.444999694824     0.961512982845     0.000002229319     
18.549999237061     0.966804027557     0.000002250434     
18.655000686646     0.972096025944     0.000002271932     
18.760000228882     0.977387011051     0.000002293047     
18.864999771118     0.982677996159     0.000002312626     
18.969999313354     0.987803995609     0.000002334124     
19.075000762939     0.993094980717     0.000002355623     
19.180000305176     0.998386025429     0.000002377889     
19.284999847412     1.003677964211     0.000002399004     
19.389999389648     1.008803009987     0.000002420502     
19.495000839233     1.014260053635     0.000002440465     
19.600000381470     1.019551038742     0.000002462731     
19.704999923706     1.024677038193     0.000002485765     
19.809999465942     1.029968023300     0.000002509183     
19.915000915527     1.035259008408     0.000002530298     
20.020000457764     1.040550947189     0.000002553716     
20.125000000000     1.045676946640     0.000002577134     
20.229999542236     1.051133036613     0.000002600168     
20.334999084473     1.056424021721     0.000002625122     
20.440000534058     1.061550021172     0.000002652763     
20.545000076294     1.066841006279     0.000002678100     
20.649999618530     1.072132945061     0.000002703438     
20.754999160767     1.077424049377     0.000002731079     
20.860000610352     1.082715034485     0.000002760255     
20.965000152588     1.088006019592     0.000002790200     
21.069999694824     1.093132019043     0.000002821296     
21.174999237061     1.098423004150     0.000002854311     
21.280000686646     1.103714942932     0.000002886943     
21.385000228882     1.108839988708     0.000002921878     
21.489999771118     1.114297032356     0.000002958733     
21.594999313354     1.119423031807     0.000002997891     
21.700000762939     1.124714016914     0.000003038584     
21.805000305176     1.130005002022     0.000003080814     
21.909999847412     1.135296940804     0.000003124578     
22.014999389648     1.140588045120     0.000003170263     
22.120000839233     1.145879030228     0.000003219018     
22.225000381470     1.151005029678     0.000003271613     
22.329999923706     1.156296014786     0.000003325743     
22.434999465942     1.161586999893     0.000003381409     
22.540000915527     1.166877985001     0.000003441681     
22.645000457764     1.172170042992     0.000003503490     
22.750000000000     1.177296042442     0.000003567601     
22.854999542236     1.182587027550     0.000003637088     
22.959999084473     1.187878012657     0.000003710413     
23.065000534058     1.193168997765     0.000003784890     
23.170000076294     1.197633981705     0.000003821744     
23.274999618530     1.194656968117     0.000003549174     
23.379999160767     1.189365983009     0.000003258176     
23.485000610352     1.184074997902     0.000003001346     
23.590000152588     1.178784012794     0.000002774844     
23.694999694824     1.173491954803     0.000002572911     
23.799999237061     1.168367028236     0.000002389790     
23.905000686646     1.163074970245     0.000002224712     
24.010000228882     1.157783985138     0.000002078445     
24.114999771118     1.152657985687     0.000001945231     
24.219999313354     1.147367000580     0.000001823534     
24.325000762939     1.142076015472     0.000001711819     
24.430000305176     1.136785030365     0.000001610853     
24.534999847412     1.131492972374     0.000001517565     
24.639999389648     1.126201987267     0.000001433874     
24.745000839233     1.121075987816     0.000001357477     
24.850000381470     1.115785002708     0.000001286840     
24.954999923706     1.110494017601     0.000001220424     
25.059999465942     1.105203032494     0.000001160920     
25.165000915527     1.099912047386     0.000001105254     
25.270000457764     1.094786047935     0.000001053811     
25.375000000000     1.089329004288     0.000001007359     
25.479999542236     1.084203004837     0.000000963978     
25.584999084473     1.078912019730     0.000000920981     
25.690000534058     1.073786020279     0.000000882591     
25.795000076294     1.068330049515     0.000000847656     
25.899999618530     1.063037991524     0.000000815792     
26.004999160767     1.057911992073     0.000000783928     
26.110000610352     1.052621006966     0.000000755903     
26.215000152588     1.047330021858     0.000000728262     
26.319999694824     1.042039036751     0.000000701389     
26.424999237061     1.036748051643     0.000000676819     
26.530000686646     1.031622052193     0.000000656089     
26.635000228882     1.026330947876     0.000000634590     
26.739999771118     1.021039009094     0.000000613475     
26.844999313354     1.015748023987     0.000000593512     
26.950000762939     1.010457038879     0.000000574701     
27.055000305176     1.005166053772     0.000000557042     
27.159999847412     1.000040054321     0.000000540918     
27.264999389648     0.994583010674     0.000000525946     
27.370000839233     0.989457011223     0.000000509822     
27.475000381470     0.984166026115     0.000000494082     
27.579999923706     0.978874981403     0.000000480261     
27.684999465942     0.973583996296     0.000000467209     
27.790000915527     0.968457996845     0.000000454540     
27.895000457764     0.963167011738     0.000000442639     
28.000000000000     0.957875013351     0.000000429970     
28.104999542236     0.952584028244     0.000000416534     
28.209999084473     0.947292983532     0.000000404633     
28.315000534058     0.942001998425     0.000000395419     
28.420000076294     0.936875998974     0.000000385054     
28.524999618530     0.931585013866     0.000000373537     
28.629999160767     0.926294028759     0.000000363555     
28.735000610352     0.921001970768     0.000000353190     
28.840000152588     0.915710985661     0.000000342824     
28.854999542236     0.904797971249     0.000000316092     
28.959999084473     0.899506986141     0.000000306776     
29.065000534058     0.894380986691     0.000000297417     
29.170000076294     0.889090001583     0.000000287933     
29.274999618530     0.883633017540     0.000000278574     
29.379999160767     0.878507018089     0.000000270433     
29.485000610352     0.873215973377     0.000000263382     
29.590000152588     0.867924988270     0.000000254192     
29.694999694824     0.862634003162     0.000000244372     
29.799999237061     0.857508003712     0.000000235768     
29.905000686646     0.852216005325     0.000000227837     
30.010000228882     0.846925020218     0.000000219192     
30.114999771118     0.841633975506     0.000000211554     
30.219999313354     0.836342990398     0.000000204377     
30.325000762939     0.831216990948     0.000000194977     
30.430000305176     0.825926005840     0.000000185954     
30.534999847412     0.820635020733     0.000000179449     
30.639999389648     0.815343022346     0.000000172357     
30.745000839233     0.810051977634     0.000000164383     
30.850000381470     0.804925978184     0.000000156787     
30.954999923706     0.799470007420     0.000000149401     
31.059999465942     0.794178009033     0.000000141385     
31.165000915527     0.789053022861     0.000000134713     
31.270000457764     0.783761024475     0.000000129383     
31.375000000000     0.778469979763     0.000000122710     
31.479999542236     0.773178994656     0.000000114905     
31.584999084473     0.768052995205     0.000000108568     
31.690000534058     0.762762010098     0.000000101811     
31.795000076294     0.757471024990     0.000000095138     
31.899999618530     0.752179026604     0.000000090018     
32.005001068115     0.747053980827     0.000000083975     
32.110000610352     0.741596996784     0.000000076127     
32.215000152588     0.736306011677     0.000000068489     
32.319999694824     0.731180012226     0.000000062782     
32.424999237061     0.725889027119     0.000000057326     
32.529998779297     0.720597028732     0.000000049898     
32.634998321533     0.715305984020     0.000000043771     
32.740001678467     0.710014998913     0.000000037140     
32.845001220703     0.704888999462     0.000000029838     
32.950000762939     0.699598014355     0.000000023921     
33.055000305176     0.694307029247     0.000000020228     
33.159999847412     0.689015984535     0.000000015737     
33.209999084473     0.679920971394     0.000000007683     
33.314998626709     0.674629986286     0.000000005272     
33.419998168945     0.669339001179     0.000000004101     
33.525001525879     0.664213001728     0.000000004768     
33.630001068115     0.658756017685     0.000000005722     
33.735000610352     0.653630971909     0.000000007820     
33.840000152588     0.648338973522     0.000000011333     
33.944999694824     0.643047988415     0.000000014812     
34.049999237061     0.637757003307     0.000000017952     
34.154998779297     0.632466018200     0.000000022239     
34.259998321533     0.627174019814     0.000000026050     
34.365001678467     0.621882975101     0.000000028591     
34.470001220703     0.616591989994     0.000000030498     
34.575000762939     0.611301004887     0.000000032405     
34.680000305176     0.606010019779     0.000000032672     
34.784999847412     0.600718021393     0.000000032070     
34.889999389648     0.595426976681     0.000000031360     
34.994998931885     0.590300977230     0.000000029434     
