
Cycle 1
Physical Cycle 1
Step 1

Time (s),          Potential (V),         Current (A)
0.104999996722     0.002479000017     -0.000002060448     
0.209999993443     0.007766999770     -0.000001830230     
0.314999997616     0.012889999896     -0.000001626871     
0.419999986887     0.018342999741     -0.000001442697     
0.449999988079     0.028423000127     -0.000001075832     
0.555000007153     0.033711001277     -0.000000937015     
0.660000026226     0.038833998144     -0.000000808995     
0.764999985695     0.044121999294     -0.000000690615     
0.870000004768     0.049410000443     -0.000000582261     
0.975000023842     0.054698001593     -0.000000482775     
1.080000042915     0.059985999018     -0.000000391387     
1.184999942780     0.065274000168     -0.000000307711     
1.289999961853     0.070396997035     -0.000000232133     
1.394999980927     0.075685001910     -0.000000162724     
1.500000000000     0.080972999334     -0.000000099871     
1.575000047684     0.088739998639     -0.000000012578     
1.679999947548     0.094028003514     0.000000034528     
1.784999966621     0.099151000381     0.000000075851     
1.889999985695     0.104438997805     0.000000113671     
1.995000004768     0.109727002680     0.000000146214     
2.099999904633     0.114849999547     0.000000174199     
2.204999923706     0.120137996972     0.000000198723     
2.309999942780     0.125590994954     0.000000220757     
2.414999961853     0.130713999271     0.000000238865     
2.519999980927     0.135837003589     0.000000254567     
2.625000000000     0.141289994121     0.000000268158     
2.730000019073     0.146412998438     0.000000279850     
2.835000038147     0.151701003313     0.000000289347     
2.940000057220     0.156988993287     0.000000298212     
3.045000076294     0.162111997604     0.000000305472     
3.150000095367     0.167565003037     0.000000311043     
3.255000114441     0.172688007355     0.000000316151     
3.359999895096     0.177975997329     0.000000321342     
3.464999914169     0.183264002204     0.000000324846     
3.569999933243     0.188716992736     0.000000327716     
3.674999952316     0.193839997053     0.000000330966     
3.779999971390     0.199128001928     0.000000332950     
3.884999990463     0.204416006804     0.000000334090     
3.990000009537     0.209538996220     0.000000335736     
4.094999790192     0.214827001095     0.000000335989     
4.199999809265     0.220115005970     0.000000335145     
4.304999828339     0.225402995944     0.000000334216     
4.409999847412     0.230691000819     0.000000333330     
4.514999866486     0.235979005694     0.000000330418     
4.619999885559     0.241266995668     0.000000327336     
4.724999904633     0.246555000544     0.000000323833     
4.829999923706     0.251843005419     0.000000319654     
4.934999942780     0.256965994835     0.000000314589     
5.039999961853     0.262253999710     0.000000309819     
5.144999980927     0.267542004585     0.000000304881     
5.250000000000     0.272830009460     0.000000298845     
5.355000019073     0.278118014336     0.000000293695     
5.460000038147     0.283405989408     0.000000289136     
5.565000057220     0.288529008627     0.000000283734     
5.670000076294     0.293983012438     0.000000279048     
5.775000095367     0.299270987511     0.000000275207     
5.880000114441     0.304392993450     0.000000271366     
5.985000133514     0.309680998325     0.000000267652     
6.090000152588     0.314969986677     0.000000265499     
6.195000171661     0.320257991552     0.000000263093     
6.300000190735     0.325545996428     0.000000260687     
6.405000209808     0.330834001303     0.000000259379     
6.510000228882     0.335956990719     0.000000259294     
6.614999771118     0.341244995594     0.000000258408     
6.719999790192     0.346533000469     0.000000258408     
6.824999809265     0.351821005344     0.000000259421     
6.929999828339     0.356943011284     0.000000260223     
7.034999847412     0.362231999636     0.000000261531     
7.139999866486     0.367520004511     0.000000263895     
7.244999885559     0.372808009386     0.000000265921     
7.349999904633     0.378096014261     0.000000267821     
7.454999923706     0.383383989334     0.000000270649     
7.559999942780     0.388671994209     0.000000273899     
7.664999961853     0.393959999084     0.000000276727     
7.769999980927     0.399248003960     0.000000279513     
7.875000000000     0.404370993376     0.000000283480     
7.980000019073     0.409658998251     0.000000286773     
8.085000038147     0.414947003126     0.000000290065     
8.189999580383     0.420235008001     0.000000294159     
8.295000076294     0.425523012877     0.000000297916     
8.399999618530     0.430810987949     0.000000301124     
8.505000114441     0.435934007168     0.000000305218     
8.609999656677     0.441222012043     0.000000309524     
8.715000152588     0.446509987116     0.000000312563     
8.819999694824     0.451797991991     0.000000316362     
8.925000190735     0.457085996866     0.000000320076     
9.029999732971     0.462374001741     0.000000323411     
9.135000228882     0.467662006617     0.000000326745     
9.239999771118     0.472784996033     0.000000330164     
9.345000267029     0.478073000908     0.000000333035     
9.449999809265     0.483361005783     0.000000335609     
9.555000305176     0.488649010658     0.000000338564     
9.659999847412     0.493772000074     0.000000341308     
9.765000343323     0.499060004950     0.000000343334     
9.869999885559     0.504513025284     0.000000345275     
9.975000381470     0.509635984898     0.000000347892     
10.079999923706     0.514923989773     0.000000349623     
10.185000419617     0.520211994648     0.000000351354     
10.289999961853     0.525499999523     0.000000353675     
10.395000457764     0.530788004398     0.000000355448     
10.500000000000     0.536076009274     0.000000356503     
10.604999542236     0.541199028492     0.000000358740     
10.710000038147     0.546486973763     0.000000360893     
10.814999580383     0.551774978638     0.000000361990     
10.920000076294     0.557062983513     0.000000363805     
11.024999618530     0.562350988388     0.000000366127     
11.130000114441     0.567474007607     0.000000367900     
11.234999656677     0.572926998138     0.000000369926     
11.340000152588     0.578050017357     0.000000372458     
11.444999694824     0.583338022232     0.000000374442     
11.550000190735     0.588626027107     0.000000376257     
11.654999732971     0.593913972378     0.000000379339     
11.760000228882     0.599201977253     0.000000382082     
11.864999771118     0.604324996471     0.000000384319     
11.970000267029     0.609777987003     0.000000387190     
12.074999809265     0.614901006222     0.000000390693     
12.180000305176     0.620189011097     0.000000393901     
12.284999847412     0.625477015972     0.000000397109     
12.390000343323     0.630765020847     0.000000401203     
12.494999885559     0.636053025723     0.000000404875     
12.600000381470     0.641175985336     0.000000408337     
12.704999923706     0.646463990211     0.000000412811     
12.810000419617     0.651751995087     0.000000417454     
12.914999961853     0.657039999962     0.000000421717     
13.020000457764     0.662328004837     0.000000426234     
13.125000000000     0.667616009712     0.000000431468     
13.229999542236     0.672905027866     0.000000436364     
13.335000038147     0.678192973137     0.000000441513     
13.439999580383     0.683314979076     0.000000447549     
13.545000076294     0.688602983952     0.000000452952     
13.649999618530     0.693890988827     0.000000458144     
13.755000114441     0.699180006981     0.000000464518     
13.859999656677     0.704468011856     0.000000470807     
13.965000152588     0.709756016731     0.000000476674     
14.069999694824     0.715044021606     0.000000482710     
14.175000190735     0.720332026482     0.000000489590     
14.279999732971     0.725454986095     0.000000495880     
14.385000228882     0.730742990971     0.000000502422     
14.489999771118     0.735864996910     0.000000509302     
14.595000267029     0.741319000721     0.000000516056     
14.699999809265     0.746441006660     0.000000522514     
14.805000305176     0.751730024815     0.000000529605     
14.909999847412     0.757018029690     0.000000537161     
15.015000343323     0.762305974960     0.000000543619     
15.119999885559     0.767593979836     0.000000550330     
15.225000381470     0.772715985775     0.000000557886     
15.329999923706     0.778169989586     0.000000564892     
15.435000419617     0.783293008804     0.000000571857     
15.539999961853     0.788581013680     0.000000579624     
15.645000457764     0.793869018555     0.000000586588     
15.750000000000     0.799157023430     0.000000593215     
15.854999542236     0.804445028305     0.000000600939     
15.960000038147     0.809567987919     0.000000608579     
16.065000534058     0.814855992794     0.000000615249     
16.170000076294     0.820143997669     0.000000622298     
16.274999618530     0.825432002544     0.000000629642     
16.379999160767     0.830720007420     0.000000636353     
16.485000610352     0.836008012295     0.000000643107     
16.590000152588     0.841130971909     0.000000650198     
16.694999694824     0.846418976784     0.000000656783     
16.799999237061     0.851706981659     0.000000662566     
16.905000686646     0.856994986534     0.000000669319     
17.010000228882     0.862282991409     0.000000675566     
17.114999771118     0.867406010628     0.000000680885     
17.219999313354     0.872694015503     0.000000686119     
17.325000762939     0.877982020378     0.000000691986     
17.430000305176     0.883270025253     0.000000696840     
17.534999847412     0.888557970524     0.000000701905     
17.639999389648     0.893845975399     0.000000707097     
17.745000839233     0.899133980274     0.000000711613     
17.850000381470     0.904256999493     0.000000715454     
17.954999923706     0.909545004368     0.000000720224     
18.059999465942     0.914833009243     0.000000724698     
18.165000915527     0.920121014118     0.000000728075     
18.270000457764     0.925409018993     0.000000731705     
18.375000000000     0.930697023869     0.000000736053     
18.479999542236     0.935985028744     0.000000739261     
18.584999084473     0.941107988358     0.000000742933     
18.690000534058     0.946395993233     0.000000746479     
18.795000076294     0.951683998108     0.000000749898     
18.899999618530     0.956972002983     0.000000752726     
19.004999160767     0.962260007858     0.000000756102     
19.110000610352     0.967383027077     0.000000759521     
19.215000152588     0.972836017609     0.000000762518     
19.319999694824     0.977958977222     0.000000765388     
19.424999237061     0.983246982098     0.000000768892     
19.530000686646     0.988370001316     0.000000771804     
19.635000228882     0.993822991848     0.000000774886     
19.739999771118     0.998946011066     0.000000778347     
19.844999313354     1.004233956337     0.000000781555     
19.950000762939     1.009521961212     0.000000784214     
20.055000305176     1.014809966087     0.000000788013     
20.159999847412     1.020097970963     0.000000791770     
20.264999389648     1.025385975838     0.000000794724     
20.370000839233     1.030673980713     0.000000798270     
20.475000381470     1.035961985588     0.000000802617     
20.579999923706     1.041085004807     0.000000805952     
20.684999465942     1.046373009682     0.000000810215     
20.790000915527     1.051661014557     0.000000814816     
20.895000457764     1.056949019432     0.000000819164     
21.000000000000     1.062237024307     0.000000823258     
21.104999542236     1.067525029182     0.000000828492     
21.209999084473     1.072813034058     0.000000834275     
21.315000534058     1.077936053276     0.000000839973     
21.420000076294     1.083224058151     0.000000844996     
21.524999618530     1.088511943817     0.000000851327     
21.629999160767     1.093799948692     0.000000857659     
21.735000610352     1.098922967911     0.000000863990     
21.840000152588     1.104375958443     0.000000871926     
21.944999694824     1.109498977661     0.000000879566     
22.049999237061     1.114786982536     0.000000886741     
22.155000686646     1.120074987411     0.000000895816     
22.260000228882     1.125362992287     0.000000905314     
22.364999771118     1.130650997162     0.000000914220     
22.469999313354     1.135774016380     0.000000924477     
22.575000762939     1.141062021255     0.000000935578     
22.680000305176     1.146350026131     0.000000946553     
22.784999847412     1.151638031006     0.000000958751     
22.889999389648     1.156926035881     0.000000972005     
22.995000839233     1.162049055099     0.000000985554     
23.100000381470     1.167502999306     0.000000999315     
23.204999923706     1.172624945641     0.000001014848     
23.309999465942     1.177912950516     0.000001030972     
23.364999771118     1.187167048454     0.000001058095     
23.469999313354     1.192456007004     0.000001076604     
23.575000762939     1.197744011879     0.000001093570     
23.680000305176     1.196421980858     0.000001034187     
23.784999847412     1.191133975983     0.000000951668     
23.889999389648     1.186010956764     0.000000878789     
23.995000839233     1.180722951889     0.000000815936     
24.100000381470     1.175434947014     0.000000760024     
24.204999923706     1.170312047005     0.000000709510     
24.309999465942     1.164859056473     0.000000663623     
24.415000915527     1.159569978714     0.000000622749     
24.520000457764     1.154448032379     0.000000585731     
24.625000000000     1.149160027504     0.000000551412     
24.729999542236     1.143872022629     0.000000521335     
24.834999084473     1.138584017754     0.000000493186     
24.940000534058     1.133295059204     0.000000466580     
25.045000076294     1.128172993660     0.000000442287     
25.149999618530     1.122884988785     0.000000420693     
25.254999160767     1.117596983910     0.000000400256     
25.360000610352     1.112308979034     0.000000380976     
25.465000152588     1.107020020485     0.000000364009     
25.569999694824     1.101732015610     0.000000347814     
25.674999237061     1.096444010735     0.000000331619     
25.780000686646     1.091156005859     0.000000318508     
25.860000610352     1.083554983139     0.000000306780     
25.965000152588     1.078266978264     0.000000294328     
26.069999694824     1.072978973389     0.000000283649     
26.174999237061     1.067690968513     0.000000273012     
26.280000686646     1.062567949295     0.000000262966     
26.385000228882     1.057279944420     0.000000254187     
26.489999771118     1.051992058754     0.000000245238     
26.594999313354     1.046704053879     0.000000236290     
26.700000762939     1.041416049004     0.000000229030     
26.805000305176     1.036128044128     0.000000221939     
26.909999847412     1.031005024910     0.000000214467     
27.014999389648     1.025717020035     0.000000207883     
27.120000839233     1.020429015160     0.000000201847     
27.225000381470     1.015141010284     0.000000195769     
27.329999923706     1.009853005409     0.000000189817     
27.434999465942     1.004564046860     0.000000184963     
27.540000915527     0.999441981316     0.000000179982     
27.645000457764     0.994153976440     0.000000174622     
27.750000000000     0.988865971565     0.000000170316     
27.854999542236     0.983578026295     0.000000166095     
27.959999084473     0.978289008141     0.000000161494     
28.065000534058     0.973001003265     0.000000157189     
28.170000076294     0.967878997326     0.000000153812     
28.274999618530     0.962590992451     0.000000149802     
28.379999160767     0.957302987576     0.000000145877     
28.485000610352     0.951848983765     0.000000143091     
28.590000152588     0.946726024151     0.000000139799     
28.694999694824     0.941438019276     0.000000135873     
28.799999237061     0.936316013336     0.000000133129     
28.905000686646     0.930862009525     0.000000130597     
29.010000228882     0.925738990307     0.000000127136     
29.114999771118     0.920450985432     0.000000124223     
29.219999313354     0.915162980556     0.000000121775     
29.325000762939     0.909874975681     0.000000118863     
29.430000305176     0.904586970806     0.000000116203     
29.534999847412     0.899299025536     0.000000114093     
29.639999389648     0.894011020660     0.000000111602     
29.745000839233     0.888888001442     0.000000108732     
29.850000381470     0.883599996567     0.000000106326     
29.954999923706     0.878311991692     0.000000104596     
30.059999465942     0.873023986816     0.000000101768     
30.165000915527     0.867901027203     0.000000099193     
30.270000457764     0.862613022327     0.000000097504     
30.375000000000     0.857325017452     0.000000095352     
30.479999542236     0.852037012577     0.000000092904     
30.584999084473     0.846749007702     0.000000091131     
30.690000534058     0.841461002827     0.000000089358     
30.795000076294     0.836172997952     0.000000086445     
30.899999618530     0.830884993076     0.000000084588     
31.004999160767     0.825596988201     0.000000083069     
31.110000610352     0.820474028587     0.000000080578     
31.215000152588     0.815186023712     0.000000078594     
31.319999694824     0.809898018837     0.000000076906     
31.424999237061     0.804774999619     0.000000074796     
31.530000686646     0.799486994743     0.000000072812     
31.635000228882     0.794034004211     0.000000071588     
31.739999771118     0.788910984993     0.000000069604     
31.844999313354     0.783622980118     0.000000067282     
31.950000762939     0.778334975243     0.000000065509     
32.055000305176     0.773046970367     0.000000064285     
32.159999847412     0.767759025097     0.000000062175     
32.264999389648     0.762471020222     0.000000060107     
32.369998931885     0.757348001003     0.000000058840     
32.474998474121     0.752059996128     0.000000057152     
32.580001831055     0.746771991253     0.000000054915     
32.685001373291     0.741483986378     0.000000053944     
32.790000915527     0.736195981503     0.000000052340     
32.895000457764     0.730907976627     0.000000049892     
33.000000000000     0.725785017014     0.000000048246     
33.104999542236     0.720497012138     0.000000047190     
33.209999084473     0.715209007263     0.000000045249     
33.314998626709     0.709921002388     0.000000043603     
33.419998168945     0.704632997513     0.000000042336     
33.525001525879     0.699344992638     0.000000040606     
33.630001068115     0.694056987762     0.000000038580     
33.735000610352     0.688768982887     0.000000037778     
33.840000152588     0.683480978012     0.000000036132     
33.944999694824     0.678358018398     0.000000033937     
34.049999237061     0.672905027866     0.000000032459     
34.154998779297     0.667616009712     0.000000031320     
34.259998321533     0.662494003773     0.000000029589     
34.330001831055     0.654231011868     0.000000027666     
34.435001373291     0.648943006992     0.000000026107     
34.540000915527     0.643819987774     0.000000025220     
34.645000457764     0.638531982899     0.000000023534     
34.750000000000     0.633243978024     0.000000021605     
34.854999542236     0.627955973148     0.000000020561     
34.959999084473     0.622668027878     0.000000019178     
35.064998626709     0.617545008659     0.000000016996     
35.169998168945     0.612092018127     0.000000015629     
35.275001525879     0.606968998909     0.000000014430     
