
Cycle 1
Physical Cycle 1
Step 1

Time (s),          Potential (V),         Current (A)
0.104999996722     0.001818999997     -0.000002157547     
0.209999993443     0.007110000122     -0.000002005070     
0.314999997616     0.012400999665     -0.000001875465     
0.419999986887     0.017692999914     -0.000001761107     
0.449999988079     0.027778999880     -0.000001646172     
0.555000007153     0.033070001751     -0.000001556723     
0.660000026226     0.038361001760     -0.000001475335     
0.764999985695     0.043653000146     -0.000001401242     
0.870000004768     0.048778001219     -0.000001331372     
0.975000023842     0.054069999605     -0.000001266109     
1.080000042915     0.059360999614     -0.000001205836     
1.184999942780     0.064652003348     -0.000001148251     
1.289999961853     0.069943003356     -0.000001092585     
1.394999980927     0.075234003365     -0.000001041910     
1.500000000000     0.080360002816     -0.000000993922     
1.605000019073     0.085652001202     -0.000000947086     
1.710000038147     0.090943001211     -0.000000901786     
1.815000057220     0.096069000661     -0.000000859557     
1.919999957085     0.101360000670     -0.000000818863     
2.025000095367     0.106651000679     -0.000000778937     
2.130000114441     0.111942000687     -0.000000742083     
2.234999895096     0.117233999074     -0.000000706764     
2.339999914169     0.122359000146     -0.000000670677     
2.444999933243     0.127816006541     -0.000000636126     
2.549999952316     0.133107006550     -0.000000604646     
2.654999971390     0.138233006001     -0.000000572782     
2.759999990463     0.143524006009     -0.000000542454     
2.865000009537     0.148815006018     -0.000000513661     
2.970000028610     0.154107004404     -0.000000485252     
3.075000047684     0.159233003855     -0.000000456459     
3.180000066757     0.164524003863     -0.000000429586     
3.285000085831     0.169815003872     -0.000000405017     
3.390000104904     0.175106003881     -0.000000380063     
3.494999885559     0.180397003889     -0.000000355493     
3.599999904633     0.185689002275     -0.000000332459     
3.704999923706     0.190814003348     -0.000000309425     
3.809999942780     0.196106001735     -0.000000286391     
3.865000009537     0.205200001597     -0.000000259647     
3.970000028610     0.210326001048     -0.000000239545     
4.074999809265     0.215617001057     -0.000000220283     
4.179999828339     0.220908001065     -0.000000200978     
4.284999847412     0.226034000516     -0.000000181338     
4.389999866486     0.231325000525     -0.000000163670     
4.494999885559     0.236616998911     -0.000000146547     
4.599999904633     0.241907998919     -0.000000128712     
4.704999923706     0.247033998370     -0.000000110708     
4.809999942780     0.252324998379     -0.000000093753     
4.914999961853     0.257616013288     -0.000000075666     
5.019999980927     0.262906998396     -0.000000058334     
5.125000000000     0.268198996782     -0.000000041715     
5.230000019073     0.273490011692     -0.000000024467     
5.335000038147     0.278780996799     -0.000000005162     
5.440000057220     0.283906996250     0.000000013429     
5.545000076294     0.289032995701     0.000000031475     
5.650000095367     0.294488996267     0.000000050108     
5.755000114441     0.299614995718     0.000000069497     
5.860000133514     0.304906010628     0.000000088256     
5.965000152588     0.310198009014     0.000000108861     
6.070000171661     0.315488994122     0.000000130558     
6.175000190735     0.320780009031     0.000000151961     
6.280000209808     0.325906008482     0.000000172735     
6.385000228882     0.331196993589     0.000000195900     
6.489999771118     0.336322993040     0.000000220283     
6.594999790192     0.341778993607     0.000000245127     
6.699999809265     0.346904993057     0.000000271356     
6.804999828339     0.352196991444     0.000000299138     
6.909999847412     0.357322007418     0.000000326416     
7.014999866486     0.362614005804     0.000000355499     
7.119999885559     0.367904990911     0.000000386932     
7.224999904633     0.373196005821     0.000000418953     
7.329999923706     0.378486990929     0.000000450805     
7.434999942780     0.383612990379     0.000000484295     
7.539999961853     0.388904005289     0.000000517532     
7.644999980927     0.394196003675     0.000000550266     
7.750000000000     0.399320989847     0.000000583630     
7.855000019073     0.404612988234     0.000000619091     
7.960000038147     0.409904003143     0.000000652455     
8.064999580383     0.415030002594     0.000000684098     
8.170000076294     0.420320987701     0.000000716538     
8.274999618530     0.425612002611     0.000000749188     
8.380000114441     0.430902987719     0.000000779739     
8.484999656677     0.436028987169     0.000000810585     
8.590000152588     0.441320002079     0.000000841137     
8.694999694824     0.446612000465     0.000000870135     
8.800000190735     0.451902985573     0.000000897456     
8.904999732971     0.457029014826     0.000000925573     
9.010000228882     0.462319999933     0.000000953397     
9.114999771118     0.467611014843     0.000000979752     
9.220000267029     0.472901999950     0.000001005730     
9.335000038147     0.484477013350     0.000001076077     
9.439999580383     0.489767998457     0.000001099495     
9.545000076294     0.494893997908     0.000001122529     
9.649999618530     0.500185012817     0.000001144796     
9.755000114441     0.505475997925     0.000001168214     
9.859999656677     0.510767996311     0.000001190096     
9.965000152588     0.516058981419     0.000001211211     
10.069999694824     0.521350026131     0.000001234245     
10.175000190735     0.526476025581     0.000001256895     
10.279999732971     0.531767010689     0.000001278010     
10.385000228882     0.537057995796     0.000001298740     
10.489999771118     0.542349994183     0.000001320239     
10.595000267029     0.547640979290     0.000001340586     
10.699999809265     0.552932024002     0.000001361700     
10.805000305176     0.558058023453     0.000001383583     
10.909999847412     0.563349008560     0.000001403930     
11.015000343323     0.568639993668     0.000001423509     
11.119999885559     0.573931992054     0.000001443855     
11.225000381470     0.579222977161     0.000001464586     
11.329999923706     0.584514021873     0.000001483397     
11.435000419617     0.589640021324     0.000001504128     
11.539999961853     0.594931006432     0.000001525627     
11.645000457764     0.600221991539     0.000001544054     
11.750000000000     0.605513989925     0.000001562865     
11.854999542236     0.610804975033     0.000001583596     
11.960000038147     0.616096019745     0.000001604710     
12.064999580383     0.621222019196     0.000001623522     
12.170000076294     0.626513004303     0.000001643101     
12.274999618530     0.631803989410     0.000001662296     
12.380000114441     0.637094974518     0.000001680723     
12.484999656677     0.642386972904     0.000001699534     
12.590000152588     0.647678017616     0.000001719881     
12.694999694824     0.652804017067     0.000001739076     
12.800000190735     0.658259987831     0.000001757119     
12.904999732971     0.663385987282     0.000001775163     
13.010000228882     0.668676972389     0.000001794358     
13.114999771118     0.673968970776     0.000001812785     
13.220000267029     0.679260015488     0.000001831596     
13.324999809265     0.684551000595     0.000001849640     
13.430000305176     0.689841985703     0.000001866915     
13.534999847412     0.694967985153     0.000001884191     
13.640000343323     0.700258970261     0.000001901851     
13.744999885559     0.705551028252     0.000001920278     
13.850000381470     0.710842013359     0.000001936786     
13.954999923706     0.716132998466     0.000001954061     
14.060000419617     0.721423983574     0.000001971337     
14.164999961853     0.726715028286     0.000001987077     
14.270000457764     0.732007026672     0.000002002433     
14.375000000000     0.737298011780     0.000002020092     
14.479999542236     0.742588996887     0.000002037368     
14.585000038147     0.747714996338     0.000002052724     
14.689999580383     0.753005981445     0.000002068464     
14.795000076294     0.758131980896     0.000002084588     
14.899999618530     0.763423025608     0.000002099944     
15.005000114441     0.768714010715     0.000002116068     
15.109999656677     0.774006009102     0.000002132192     
15.215000152588     0.779296994209     0.000002147164     
15.319999694824     0.784587979317     0.000002161752     
15.425000190735     0.789879024029     0.000002177108     
15.529999732971     0.795005023479     0.000002192464     
15.635000228882     0.800462007523     0.000002207053     
15.739999771118     0.805588006973     0.000002222793     
15.845000267029     0.811043977737     0.000002237765     
15.949999809265     0.816169977188     0.000002250817     
16.055000305176     0.821461021900     0.000002264254     
16.159999847412     0.826587021351     0.000002279994     
16.264999389648     0.832044005394     0.000002295350     
16.370000839233     0.837334990501     0.000002308019     
16.475000381470     0.842460989952     0.000002321839     
16.579999923706     0.847751975060     0.000002336428     
16.684999465942     0.852877974510     0.000002349864     
16.790000915527     0.858334004879     0.000002364836     
16.895000457764     0.863460004330     0.000002380192     
17.000000000000     0.868752002716     0.000002395165     
17.104999542236     0.874042987823     0.000002408601     
17.209999084473     0.879333972931     0.000002423573     
17.315000534058     0.884625017643     0.000002439313     
17.420000076294     0.889916002750     0.000002454669     
17.524999618530     0.895208001137     0.000002470793     
17.629999160767     0.900332987309     0.000002487685     
17.735000610352     0.905624985695     0.000002503809     
17.840000152588     0.910915970802     0.000002519933     
17.944999694824     0.916207015514     0.000002537592     
18.049999237061     0.921498000622     0.000002554484     
18.155000686646     0.926624000072     0.000002570608     
18.260000228882     0.931914985180     0.000002589035     
18.364999771118     0.937206983566     0.000002607078     
18.469999313354     0.942498028278     0.000002623970     
18.575000762939     0.947789013386     0.000002642781     
18.680000305176     0.953079998493     0.000002663128     
18.784999847412     0.958370983601     0.000002682707     
18.889999389648     0.963496983051     0.000002700367     
18.995000839233     0.968788981438     0.000002720330     
19.100000381470     0.974080026150     0.000002741060     
19.204999923706     0.979371011257     0.000002761023     
19.309999465942     0.984661996365     0.000002781754     
19.415000915527     0.989952981472     0.000002803252     
19.520000457764     0.995078980923     0.000002823215     
19.625000000000     1.000535964966     0.000002843178     
19.729999542236     1.005661964417     0.000002865445     
19.834999084473     1.010952949524     0.000002887711     
19.940000534058     1.016244053841     0.000002909593     
20.045000076294     1.021535038948     0.000002931476     
20.149999618530     1.026661038399     0.000002952974     
20.254999160767     1.031952023506     0.000002973705     
20.360000610352     1.037243962288     0.000002995203     
20.465000152588     1.042534947395     0.000003019389     
20.569999694824     1.047826051712     0.000003042039     
20.674999237061     1.053117036819     0.000003063922     
20.780000686646     1.058408975601     0.000003086956     
20.885000228882     1.063534021378     0.000003110758     
20.989999771118     1.068825960159     0.000003134176     
21.094999313354     1.074116945267     0.000003159130     
21.200000762939     1.079242944717     0.000003186003     
21.305000305176     1.084699034691     0.000003211724     
21.409999847412     1.089825034142     0.000003237062     
21.514999389648     1.095116019249     0.000003266238     
21.620000839233     1.100407958031     0.000003296950     
21.725000381470     1.105698943138     0.000003328430     
21.829999923706     1.110990047455     0.000003360294     
21.934999465942     1.116281032562     0.000003394845     
22.040000915527     1.121407032013     0.000003429397     
22.145000457764     1.126698017120     0.000003467019     
22.250000000000     1.131989955902     0.000003507713     
22.354999542236     1.137280941010     0.000003549558     
22.459999084473     1.142406940460     0.000003592555     
22.565000534058     1.147698044777     0.000003639775     
22.670000076294     1.152989029884     0.000003688530     
22.774999618530     1.158280014992     0.000003739973     
22.879999160767     1.163571000099     0.000003795639     
22.985000610352     1.168863058090     0.000003853992     
23.090000152588     1.173989057541     0.000003913497     
23.194999694824     1.179280042648     0.000003975305     
23.299999237061     1.184571027756     0.000004043256     
23.405000686646     1.189862012863     0.000004115813     
23.510000228882     1.195152997971     0.000004189906     
23.614999771118     1.197468042374     0.000004121572     
23.719999313354     1.192507982254     0.000003801398     
23.825000762939     1.187381982803     0.000003517310     
23.930000305176     1.182090997696     0.000003265087     
24.034999847412     1.176800012589     0.000003039736     
24.139999389648     1.171507954597     0.000002835500     
24.245000839233     1.166216969490     0.000002648540     
24.350000381470     1.161090970039     0.000002478855     
24.454999923706     1.155799984932     0.000002325294     
24.559999465942     1.150508999825     0.000002183635     
24.665000915527     1.145218014717     0.000002055027     
24.770000457764     1.140092015266     0.000001937169     
24.875000000000     1.134799957275     0.000001827374     
24.979999542236     1.129508972168     0.000001726407     
25.084999084473     1.124217987061     0.000001634271     
25.190000534058     1.118927001953     0.000001549428     
25.295000076294     1.113636016846     0.000001470729     
25.399999618530     1.108343958855     0.000001397787     
25.504999160767     1.103219032288     0.000001330220     
25.610000610352     1.097926974297     0.000001266493     
25.715000152588     1.092635989189     0.000001208140     
25.819999694824     1.087509989738     0.000001154777     
25.924999237061     1.082219004631     0.000001104102     
26.030000686646     1.076928019524     0.000001055730     
26.135000228882     1.071637034416     0.000001010814     
26.239999771118     1.066344976425     0.000000969353     
26.344999313354     1.061053991318     0.000000929811     
26.450000762939     1.055927991867     0.000000893724     
26.555000305176     1.050637006760     0.000000859557     
26.659999847412     1.045346021652     0.000000825773     
26.764999389648     1.040055036545     0.000000793525     
26.870000839233     1.034762978554     0.000000764733     
26.975000381470     1.029471993446     0.000000737860     
27.079999923706     1.024345993996     0.000000710987     
27.184999465942     1.018890023232     0.000000685649     
27.290000915527     1.013764023781     0.000000661463     
27.395000457764     1.008473038673     0.000000637661     
27.500000000000     1.003180980682     0.000000615779     
27.604999542236     0.998055994511     0.000000595432     
27.709999084473     0.992599010468     0.000000575469     
27.815000534058     0.987473011017     0.000000554738     
27.920000076294     0.982182025909     0.000000536311     
28.024999618530     0.976890981197     0.000000518268     
28.129999160767     0.971599996090     0.000000500224     
28.235000610352     0.966307997704     0.000000484100     
28.340000152588     0.961181998253     0.000000468744     
28.444999694824     0.955726027489     0.000000451469     
28.549999237061     0.950600028038     0.000000434961     
28.655000686646     0.945308983326     0.000000421140     
28.760000228882     0.940017998219     0.000000407320     
28.864999771118     0.934725999832     0.000000392348     
28.969999313354     0.929435014725     0.000000378527     
29.075000762939     0.924309015274     0.000000365091     
29.180000305176     0.919017970562     0.000000350886     
29.284999847412     0.913726985455     0.000000337834     
29.389999389648     0.908436000347     0.000000326317     
29.475000381470     0.900995016098     0.000000299432     
29.579999923706     0.895869016647     0.000000286842     
29.684999465942     0.890577971935     0.000000274504     
29.790000915527     0.885286986828     0.000000263089     
29.895000457764     0.879994988441     0.000000250625     
30.000000000000     0.874704003334     0.000000239755     
30.104999542236     0.869413018227     0.000000228550     
30.209999084473     0.864121973515     0.000000216170     
30.315000534058     0.858995974064     0.000000204168     
30.420000076294     0.853704988956     0.000000193970     
30.524999618530     0.848412990570     0.000000183016     
30.629999160767     0.843122005463     0.000000171979     
30.735000610352     0.837996006012     0.000000161613     
30.840000152588     0.832705020905     0.000000151541     
30.944999694824     0.827413976192     0.000000139791     
31.049999237061     0.822122991085     0.000000129761     
31.155000686646     0.816830992699     0.000000121200     
31.260000228882     0.811540007591     0.000000111631     
31.364999771118     0.806414008141     0.000000100804     
31.469999313354     0.801123023033     0.000000091781     
31.575000762939     0.795831978321     0.000000083723     
31.680000305176     0.790540993214     0.000000074617     
31.784999847412     0.785414993763     0.000000066097     
31.889999389648     0.779958009720     0.000000058585     
31.995000839233     0.774832010269     0.000000049353     
32.099998474121     0.769541025162     0.000000040162     
32.205001831055     0.764249980450     0.000000032398     
32.310001373291     0.758958995342     0.000000025180     
32.415000915527     0.753832995892     0.000000016745     
32.520000457764     0.748542010784     0.000000008561     
32.625000000000     0.743250012398     0.000000000000     
32.709999084473     0.736140012741     -0.000000010959     
32.814998626709     0.730849027634     -0.000000019004     
32.919998168945     0.725723028183     -0.000000025627     
33.025001525879     0.720431983471     -0.000000032916     
33.130001068115     0.715140998363     -0.000000039748     
33.235000610352     0.709850013256     -0.000000045405     
33.340000152588     0.704724013805     -0.000000049682     
33.444999694824     0.699433028698     -0.000000054198     
33.549999237061     0.694140970707     -0.000000056784     
33.654998779297     0.689015984535     -0.000000057425     
33.759998321533     0.683723986149     -0.000000056781     
33.865001678467     0.678433001041     -0.000000055713     
33.970001220703     0.672976970673     -0.000000051803     
34.075000762939     0.667850971222     -0.000000047427     
34.180000305176     0.662393987179     -0.000000041522     
34.284999847412     0.657103002071     -0.000000035400     
34.389999389648     0.651812016964     -0.000000027969     
34.494998931885     0.646520018578     -0.000000021637     
34.599998474121     0.641228973866     -0.000000015812     
34.705001831055     0.635937988758     -0.000000010464     
34.810001373291     0.630647003651     -0.000000005978     
34.915000915527     0.625356018543     -0.000000003658     
35.020000457764     0.620064020157     -0.000000002148     
35.125000000000     0.614772975445     -0.000000001720     
35.229999542236     0.609481990337     -0.000000002872     
