
Cycle 1
Physical Cycle 1
Step 1

Time (s),          Potential (V),         Current (A)
0.104999996722     0.001818999997     -0.000001837345     
0.209999993443     0.007110000122     -0.000001719176     
0.314999997616     0.012400999665     -0.000001616254     
0.419999986887     0.017692999914     -0.000001520956     
0.449999988079     0.027778999880     -0.000001445775     
0.555000007153     0.032905001193     -0.000001376673     
0.660000026226     0.038196001202     -0.000001312561     
0.764999985695     0.043487001210     -0.000001251137     
0.870000004768     0.048778001219     -0.000001193935     
0.975000023842     0.054069999605     -0.000001141725     
1.080000042915     0.059360999614     -0.000001091049     
1.184999942780     0.064652003348     -0.000001043062     
1.289999961853     0.069778002799     -0.000000998529     
1.394999980927     0.075069002807     -0.000000955916     
1.500000000000     0.080360002816     -0.000000913687     
1.605000019073     0.085652001202     -0.000000874145     
1.710000038147     0.090943001211     -0.000000836522     
1.815000057220     0.096234001219     -0.000000799668     
1.919999957085     0.101525001228     -0.000000763581     
2.025000095367     0.106651000679     -0.000000730182     
2.130000114441     0.111942000687     -0.000000697166     
2.234999895096     0.117233999074     -0.000000664918     
2.339999914169     0.122524999082     -0.000000633822     
2.444999933243     0.127816006541     -0.000000603878     
2.549999952316     0.132942005992     -0.000000574701     
2.654999971390     0.138233006001     -0.000000545525     
2.759999990463     0.143524006009     -0.000000518268     
2.865000009537     0.148815006018     -0.000000491011     
2.970000028610     0.154107004404     -0.000000464138     
3.075000047684     0.159398004413     -0.000000439952     
3.180000066757     0.164524003863     -0.000000416150     
3.285000085831     0.169815003872     -0.000000391196     
3.390000104904     0.175106003881     -0.000000367394     
3.494999885559     0.180397003889     -0.000000345512     
3.599999904633     0.185689002275     -0.000000323629     
3.704999923706     0.190980002284     -0.000000301747     
3.720000028610     0.201893001795     -0.000000267915     
3.825000047684     0.207019001245     -0.000000248484     
3.930000066757     0.212310001254     -0.000000230690     
4.034999847412     0.217601001263     -0.000000212183     
4.139999866486     0.222892001271     -0.000000194809     
4.244999885559     0.228183999658     -0.000000178526     
4.349999904633     0.233309999108     -0.000000162621     
4.454999923706     0.238600999117     -0.000000146044     
4.559999942780     0.243891999125     -0.000000131439     
4.664999961853     0.249182999134     -0.000000117800     
4.769999980927     0.254308998585     -0.000000103280     
4.875000000000     0.259600013494     -0.000000089767     
4.980000019073     0.264892011881     -0.000000077512     
5.085000038147     0.270182996988     -0.000000065300     
5.190000057220     0.275308996439     -0.000000051871     
5.295000076294     0.280600011349     -0.000000040582     
5.400000095367     0.285890996456     -0.000000029838     
5.505000114441     0.291182011366     -0.000000018423     
5.610000133514     0.296472996473     -0.000000007386     
5.715000152588     0.301764994860     0.000000002434     
5.760000228882     0.310858994722     0.000000018844     
5.864999771118     0.315984994173     0.000000029216     
5.969999790192     0.321276009083     0.000000038837     
6.074999809265     0.326402008533     0.000000047805     
6.179999828339     0.331692993641     0.000000057799     
6.284999847412     0.336818993092     0.000000067683     
6.389999866486     0.342110008001     0.000000076929     
6.414999961853     0.352858006954     0.000000099881     
6.519999980927     0.358148992062     0.000000109491     
6.625000000000     0.363274991512     0.000000119185     
6.730000019073     0.368566006422     0.000000129635     
6.835000038147     0.373856991529     0.000000140714     
6.940000057220     0.379148989916     0.000000150996     
7.045000076294     0.384440004826     0.000000161236     
7.150000095367     0.389566004276     0.000000172399     
7.255000114441     0.394856989384     0.000000183646     
7.360000133514     0.400148004293     0.000000194096     
7.465000152588     0.405438989401     0.000000205510     
7.570000171661     0.410730987787     0.000000216757     
7.675000190735     0.415856987238     0.000000226746     
7.780000209808     0.421148002148     0.000000237195     
7.885000228882     0.426438987255     0.000000249282     
7.989999771118     0.431730002165     0.000000260445     
8.095000267029     0.437020987272     0.000000270475     
8.199999809265     0.442312985659     0.000000281554     
8.305000305176     0.447604000568     0.000000292381     
8.409999847412     0.452730000019     0.000000302285     
8.515000343323     0.458020985126     0.000000312441     
8.619999885559     0.463312000036     0.000000323730     
8.725000381470     0.468437999487     0.000000334180     
8.829999923706     0.473729014397     0.000000343497     
8.935000419617     0.479019999504     0.000000353736     
9.039999961853     0.484311997890     0.000000363766     
9.145000457764     0.489603012800     0.000000373083     
9.250000000000     0.494893997908     0.000000382735     
9.354999542236     0.500020027161     0.000000392933     
9.460000038147     0.505311012268     0.000000401872     
9.564999580383     0.510601997375     0.000000410685     
9.670000076294     0.515893995762     0.000000420547     
9.774999618530     0.521184980869     0.000000429864     
9.880000114441     0.526310980320     0.000000438719     
9.984999656677     0.531602025032     0.000000448287     
10.090000152588     0.536893010139     0.000000457940     
10.194999694824     0.542019009590     0.000000466291     
10.300000190735     0.547475993633     0.000000474768     
10.404999732971     0.552600979805     0.000000484966     
10.510000228882     0.557892978191     0.000000494660     
10.614999771118     0.563184022903     0.000000503012     
10.720000267029     0.568475008011     0.000000512706     
10.824999809265     0.573765993118     0.000000522358     
10.930000305176     0.579056978226     0.000000531087     
11.034999847412     0.584182977676     0.000000540068     
11.140000343323     0.589474976063     0.000000550770     
11.244999885559     0.594766020775     0.000000560674     
11.350000381470     0.600057005882     0.000000569655     
11.454999923706     0.605183005333     0.000000579727     
11.560000419617     0.610473990440     0.000000589883     
11.664999961853     0.615764975548     0.000000599577     
11.770000457764     0.621056020260     0.000000609775     
11.875000000000     0.626348018646     0.000000620938     
11.979999542236     0.631639003754     0.000000630800     
12.085000038147     0.636929988861     0.000000640872     
12.189999580383     0.642055988312     0.000000651867     
12.295000076294     0.647346973419     0.000000662904     
12.399999618530     0.652472972870     0.000000673186     
12.505000114441     0.657930016518     0.000000684433     
12.609999656677     0.663056015968     0.000000696016     
12.715000152588     0.668347001076     0.000000706885     
12.819999694824     0.673637986183     0.000000717797     
12.925000190735     0.678928971291     0.000000730429     
13.029999732971     0.684220016003     0.000000742389     
13.135000228882     0.689512014389     0.000000753552     
13.239999771118     0.694637000561     0.000000766016     
13.345000267029     0.699928998947     0.000000778229     
13.449999809265     0.705219984055     0.000000790021     
13.555000305176     0.710511028767     0.000000802317     
13.659999847412     0.715802013874     0.000000816166     
13.765000343323     0.720928013325     0.000000829764     
13.869999885559     0.726218998432     0.000000842689     
13.975000381470     0.731510996819     0.000000856958     
14.079999923706     0.736801981926     0.000000871394     
14.185000419617     0.742093026638     0.000000885663     
14.289999961853     0.747219026089     0.000000900351     
14.395000457764     0.752510011196     0.000000916173     
14.500000000000     0.757800996304     0.000000931197     
14.604999542236     0.763092994690     0.000000946389     
14.710000038147     0.768217980862     0.000000962588     
14.814999580383     0.773509979248     0.000000978745     
14.920000076294     0.778801023960     0.000000994315     
15.024999618530     0.784092009068     0.000001010849     
15.130000114441     0.789382994175     0.000001027300     
15.185000419617     0.798642992973     0.000001068399     
15.289999961853     0.803933978081     0.000001082988     
15.395000457764     0.809225022793     0.000001097192     
15.500000000000     0.814517021179     0.000001111780     
15.604999542236     0.819808006287     0.000001126368     
15.710000038147     0.824934005737     0.000001139421     
15.814999580383     0.830224990845     0.000001152858     
15.920000076294     0.835515975952     0.000001166294     
16.024999618530     0.840807020664     0.000001178963     
16.129999160767     0.846099019051     0.000001191248     
16.235000610352     0.851224005222     0.000001203533     
16.340000152588     0.856516003609     0.000001215818     
16.444999694824     0.861806988716     0.000001226951     
16.549999237061     0.867097973824     0.000001238468     
16.655000686646     0.872389018536     0.000001251904     
16.760000228882     0.877680003643     0.000001263805     
16.864999771118     0.882972002029     0.000001274939     
16.969999313354     0.888262987137     0.000001287223     
17.075000762939     0.893388986588     0.000001299892     
17.180000305176     0.898679971695     0.000001311793     
17.284999847412     0.903971016407     0.000001324078     
17.389999389648     0.909262001514     0.000001337898     
17.495000839233     0.914553999901     0.000001351335     
17.600000381470     0.919844985008     0.000001363620     
17.704999923706     0.924970984459     0.000001377440     
17.809999465942     0.930262029171     0.000001391645     
17.915000915527     0.935553014278     0.000001406233     
18.020000457764     0.940679013729     0.000001421205     
18.125000000000     0.946135997772     0.000001437329     
18.229999542236     0.951426982880     0.000001451917     
18.334999084473     0.956552982330     0.000001468041     
18.440000534058     0.961844027042     0.000001484165     
18.545000076294     0.967135012150     0.000001501441     
18.649999618530     0.972425997257     0.000001517949     
18.754999160767     0.977717995644     0.000001535608     
18.860000610352     0.983008980751     0.000001553267     
18.965000152588     0.988134980202     0.000001570159     
19.069999694824     0.993591010571     0.000001587435     
19.174999237061     0.998717010021     0.000001606630     
19.280000686646     1.004008054733     0.000001623905     
19.385000228882     1.009299039841     0.000001640797     
19.489999771118     1.014425039291     0.000001658457     
19.594999313354     1.019881963730     0.000001676884     
19.700000762939     1.025007963181     0.000001693392     
19.805000305176     1.030298948288     0.000001710667     
19.909999847412     1.035590052605     0.000001729479     
20.014999389648     1.040881037712     0.000001748290     
20.120000839233     1.046172976494     0.000001765181     
20.225000381470     1.051463961601     0.000001783993     
20.329999923706     1.056589961052     0.000001802804     
20.434999465942     1.061880946159     0.000001821999     
20.540000915527     1.067172050476     0.000001841962     
20.645000457764     1.072463035583     0.000001863460     
20.750000000000     1.077754974365     0.000001883807     
20.854999542236     1.083045959473     0.000001904922     
20.959999084473     1.088171958923     0.000001927188     
21.065000534058     1.093462944031     0.000001949838     
21.170000076294     1.098754048347     0.000001973256     
21.274999618530     1.104045033455     0.000001998210     
21.379999160767     1.109336972237     0.000002024699     
21.485000610352     1.114462018013     0.000002050421     
21.590000152588     1.119753956795     0.000002077294     
21.694999694824     1.125044941902     0.000002108006     
21.799999237061     1.130336046219     0.000002137950     
21.905000686646     1.135627031326     0.000002168278     
22.010000228882     1.140918016434     0.000002201294     
22.114999771118     1.146209955215     0.000002235845     
22.219999313354     1.151335954666     0.000002270396     
22.325000762939     1.156627058983     0.000002306867     
22.430000305176     1.161918044090     0.000002346409     
22.534999847412     1.167209029198     0.000002387103     
22.639999389648     1.172500014305     0.000002428948     
22.745000839233     1.177626013756     0.000002472713     
22.850000381470     1.182916998863     0.000002519165     
22.954999923706     1.188209056854     0.000002567537     
23.059999465942     1.193500041962     0.000002618212     
23.165000915527     1.197798967361     0.000002641246     
23.270000457764     1.194491982460     0.000002468106     
23.375000000000     1.189200997353     0.000002288440     
23.479999542236     1.183910012245     0.000002129888     
23.584999084473     1.178617954254     0.000001987845     
23.690000534058     1.173491954803     0.000001859237     
23.795000076294     1.168200969696     0.000001743299     
23.899999618530     1.162909984589     0.000001637342     
24.004999160767     1.157618999481     0.000001539831     
24.110000610352     1.152328014374     0.000001450766     
24.215000152588     1.147035956383     0.000001370146     
24.319999694824     1.141911029816     0.000001295285     
24.424999237061     1.136618971825     0.000001226183     
24.530000686646     1.131327986717     0.000001163223     
24.635000228882     1.126037001610     0.000001104870     
24.739999771118     1.120911002159     0.000001049588     
24.844999313354     1.115620017052     0.000000998913     
24.950000762939     1.110329031944     0.000000953229     
25.055000305176     1.105036973953     0.000000910232     
25.159999847412     1.099745988846     0.000000868770     
25.264999389648     1.094455003738     0.000000831532     
25.370000839233     1.089164018631     0.000000796597     
25.475000381470     1.084038019180     0.000000762813     
25.579999923706     1.078747034073     0.000000730949     
25.684999465942     1.073454976082     0.000000702925     
25.790000915527     1.068163990974     0.000000674900     
25.895000457764     1.063037991524     0.000000648410     
26.000000000000     1.057582020760     0.000000623841     
26.104999542236     1.052456021309     0.000000600807     
26.209999084473     1.047165036201     0.000000577773     
26.315000534058     1.041874051094     0.000000556658     
26.420000076294     1.036581993103     0.000000537079     
26.524999618530     1.031291007996     0.000000517116     
26.629999160767     1.026000022888     0.000000498305     
26.735000610352     1.020874023438     0.000000480645     
26.840000152588     1.015583038330     0.000000463754     
26.944999694824     1.010292053223     0.000000446862     
27.049999237061     1.004999995232     0.000000431506     
27.155000686646     0.999709010124     0.000000416918     
27.260000228882     0.994418025017     0.000000401178     
27.364999771118     0.989292025566     0.000000386205     
27.469999313354     0.984000980854     0.000000372769     
27.575000762939     0.978709995747     0.000000360100     
27.680000305176     0.973417997360     0.000000346280     
27.784999847412     0.968127012253     0.000000333611     
27.889999389648     0.962836027145     0.000000321326     
27.975000381470     0.955394983292     0.000000294564     
28.079999923706     0.950103998184     0.000000283065     
28.184999465942     0.944977998734     0.000000272741     
28.290000915527     0.939687013626     0.000000261620     
28.395000457764     0.934396028519     0.000000249701     
28.500000000000     0.929103970528     0.000000239000     
28.604999542236     0.923812985420     0.000000228424     
28.709999084473     0.918686985970     0.000000217135     
28.815000534058     0.913396000862     0.000000206853     
28.920000076294     0.908105015755     0.000000197369     
29.024999618530     0.902813971043     0.000000186877     
29.129999160767     0.897687971592     0.000000176092     
29.235000610352     0.892396986485     0.000000166230     
29.340000152588     0.887104988098     0.000000156619     
29.444999694824     0.881814002991     0.000000146086     
29.549999237061     0.876688003540     0.000000136769     
29.655000686646     0.871231973171     0.000000127788     
29.760000228882     0.866105973721     0.000000117213     
29.864999771118     0.860814988613     0.000000106931     
29.969999313354     0.855522990227     0.000000098076     
30.075000762939     0.850232005119     0.000000089221     
30.180000305176     0.844941020012     0.000000079149     
30.284999847412     0.839649975300     0.000000070462     
30.389999389648     0.834523975849     0.000000061649     
30.495000839233     0.829232990742     0.000000051829     
30.600000381470     0.823942005634     0.000000042470     
30.704999923706     0.818650007248     0.000000034706     
30.809999465942     0.813524007797     0.000000026355     
30.915000915527     0.808233022690     0.000000017122     
31.020000457764     0.802941977978     0.000000008855     
31.125000000000     0.797650992870     0.000000000839     
31.190000534058     0.789548993111     -0.000000011905     
31.295000076294     0.784256994724     -0.000000020492     
31.399999618530     0.778966009617     -0.000000027591     
31.504999160767     0.773840010166     -0.000000035056     
31.610000610352     0.768714010715     -0.000000043212     
31.715000152588     0.763423025608     -0.000000051120     
31.819999694824     0.758131980896     -0.000000058211     
31.924999237061     0.753005981445     -0.000000066023     
32.029998779297     0.747714996338     -0.000000073695     
32.134998321533     0.742588996887     -0.000000081061     
32.240001678467     0.737298011780     -0.000000088545     
32.349998474121     0.730849027634     -0.000000103280     
32.455001831055     0.725557982922     -0.000000109029     
32.560001373291     0.720266997814     -0.000000114905     
32.665000915527     0.714976012707     -0.000000120822     
32.770000457764     0.709850013256     -0.000000127914     
32.875000000000     0.704393029213     -0.000000133118     
32.979999542236     0.699267029762     -0.000000138364     
33.084999084473     0.693975985050     -0.000000142980     
33.189998626709     0.688684999943     -0.000000146086     
33.294998168945     0.683394014835     -0.000000147009     
33.400001525879     0.678268015385     -0.000000148310     
33.505001068115     0.672810971737     -0.000000148394     
33.610000610352     0.667519986629     -0.000000146841     
33.715000152588     0.662229001522     -0.000000143736     
33.819999694824     0.657103002071     -0.000000140420     
33.924999237061     0.651646018028     -0.000000135174     
34.029998779297     0.646520018578     -0.000000129299     
34.134998321533     0.641228973866     -0.000000124683     
34.240001678467     0.635937988758     -0.000000119941     
34.345001220703     0.630647003651     -0.000000113939     
34.450000762939     0.625521004200     -0.000000108693     
34.555000305176     0.620230019093     -0.000000105294     
34.659999847412     0.614938974380     -0.000000101853     
34.764999389648     0.609646975994     -0.000000099041     
34.869998931885     0.604520976543     -0.000000098202     
34.974998474121     0.599065005779     -0.000000097614     
