
Cycle 1
Physical Cycle 1
Step 1

Time (s),          Potential (V),         Current (A)
0.104999996722     0.002641000086     -0.000000370603     
0.209999993443     0.007922000252     -0.000000343858     
0.314999997616     0.013203999959     -0.000000317114     
0.419999986887     0.018485000357     -0.000000294190     
0.449999988079     0.028387999162     -0.000000231963     
0.555000007153     0.033668998629     -0.000000213113     
0.660000026226     0.038950998336     -0.000000194649     
0.764999985695     0.044231999665     -0.000000177338     
0.795000016689     0.054299999028     -0.000000147374     
0.899999976158     0.059581000358     -0.000000134753     
1.004999995232     0.064862996340     -0.000000121711     
1.110000014305     0.070143997669     -0.000000110268     
1.215000033379     0.075259998441     -0.000000101096     
1.320000052452     0.080706998706     -0.000000090873     
1.424999952316     0.085988000035     -0.000000081407     
1.529999971390     0.091104999185     -0.000000074465     
1.634999990463     0.096551001072     -0.000000066556     
1.740000009537     0.101668000221     -0.000000058941     
1.845000028610     0.106949001551     -0.000000052841     
1.950000047684     0.112231001258     -0.000000047119     
2.055000066757     0.117512002587     -0.000000040430     
2.160000085831     0.122792996466     -0.000000035297     
2.265000104904     0.127910003066     -0.000000030417     
2.369999885559     0.133191004395     -0.000000024359     
2.474999904633     0.138473004103     -0.000000019942     
2.579999923706     0.143754005432     -0.000000015482     
2.684999942780     0.149036005139     -0.000000009802     
2.795000076294     0.154976993799     -0.000000004281     
2.900000095367     0.160258993506     0.000000000354     
3.005000114441     0.165374994278     0.000000004458     
3.109999895096     0.170820996165     0.000000010068     
3.214999914169     0.176102995872     0.000000015450     
3.319999933243     0.181218996644     0.000000019777     
3.424999952316     0.186500996351     0.000000025495     
3.529999971390     0.191616997123     0.000000031639     
3.634999990463     0.196898996830     0.000000036417     
3.740000009537     0.202179998159     0.000000042304     
3.845000028610     0.207460999489     0.000000048953     
3.950000047684     0.212577998638     0.000000054416     
4.054999828339     0.217858999968     0.000000060445     
4.159999847412     0.222975999117     0.000000067648     
4.264999866486     0.228091999888     0.000000073720     
4.369999885559     0.233539000154     0.000000079980     
4.485000133514     0.244927003980     0.000000096258     
4.590000152588     0.250207990408     0.000000103620     
4.695000171661     0.255490005016     0.000000109973     
4.800000190735     0.260771006346     0.000000117840     
4.905000209808     0.266052007675     0.000000126591     
5.010000228882     0.271333992481     0.000000134290     
5.114999771118     0.276614993811     0.000000142452     
5.219999790192     0.281731992960     0.000000152128     
5.324999809265     0.287012994289     0.000000160837     
5.429999828339     0.292459994555     0.000000169629     
5.534999847412     0.297576010227     0.000000179642     
5.639999866486     0.302857011557     0.000000189108     
5.744999885559     0.308138996363     0.000000198785     
5.849999904633     0.313255012035     0.000000209597     
5.954999923706     0.318702012300     0.000000219610     
6.059999942780     0.323983013630     0.000000229328     
6.164999961853     0.329100012779     0.000000240435     
6.269999980927     0.334381014109     0.000000251289     
6.375000000000     0.339661985636     0.000000260587     
6.480000019073     0.344944000244     0.000000271693     
6.585000038147     0.350059986115     0.000000283136     
6.690000057220     0.355342000723     0.000000292981     
6.795000076294     0.360623002052     0.000000303709     
6.900000095367     0.365904986858     0.000000314900     
7.005000114441     0.371185988188     0.000000325165     
7.110000133514     0.376466989517     0.000000335473     
7.215000152588     0.381749004126     0.000000346832     
7.320000171661     0.387030005455     0.000000357223     
7.425000190735     0.392147004604     0.000000367404     
7.530000209808     0.397428005934     0.000000378763     
7.635000228882     0.402709990740     0.000000389071     
7.739999771118     0.407990992069     0.000000399084     
7.844999790192     0.413107007742     0.000000410485     
7.949999809265     0.418388992548     0.000000421002     
8.055000305176     0.423835009336     0.000000430595     
8.159999847412     0.428952008486     0.000000441954     
8.265000343323     0.434233009815     0.000000453229     
8.369999885559     0.439514994621     0.000000462568     
8.475000381470     0.444795995951     0.000000473549     
8.579999923706     0.450076997280     0.000000484950     
8.685000419617     0.455359011889     0.000000495131     
8.789999961853     0.460640013218     0.000000505691     
8.895000457764     0.465921998024     0.000000517134     
9.000000000000     0.471202999353     0.000000527820     
9.104999542236     0.476319998503     0.000000538801     
9.210000038147     0.481600999832     0.000000550496     
9.314999580383     0.486882001162     0.000000561687     
9.420000076294     0.492163985968     0.000000572710     
9.524999618530     0.497444987297     0.000000585415     
9.630000114441     0.502561986446     0.000000596985     
9.734999656677     0.507843017578     0.000000608007     
9.840000152588     0.513125002384     0.000000620755     
9.944999694824     0.518405973911     0.000000633839     
10.050000190735     0.523687005043     0.000000645198     
10.154999732971     0.528968989849     0.000000658408     
10.260000228882     0.534250020981     0.000000671955     
10.364999771118     0.539367020130     0.000000684324     
10.470000267029     0.544647991657     0.000000697450     
10.574999809265     0.549929976463     0.000000711796     
10.680000305176     0.555211007595     0.000000725343     
10.784999847412     0.560491979122     0.000000739058     
10.890000343323     0.565774023533     0.000000754203     
10.994999885559     0.571054995060     0.000000768718     
11.100000381470     0.576171994209     0.000000783653     
11.204999923706     0.581453025341     0.000000799808     
11.310000419617     0.586735010147     0.000000815374     
11.414999961853     0.592015981674     0.000000830856     
11.520000457764     0.597297012806     0.000000847811     
11.625000000000     0.602578997612     0.000000864892     
11.729999542236     0.607694983482     0.000000881005     
11.835000038147     0.612977027893     0.000000898548     
11.939999580383     0.618257999420     0.000000916807     
12.045000076294     0.623539984226     0.000000933425     
12.149999618530     0.628821015358     0.000000951095     
12.255000114441     0.634103000164     0.000000968975     
12.359999656677     0.639383971691     0.000000985593     
12.465000152588     0.644665002823     0.000001002379     
12.569999694824     0.649782001972     0.000001019460     
12.675000190735     0.655062973499     0.000001035657     
12.774999618530     0.662159979343     0.000001061335     
12.880000114441     0.667442023754     0.000001075568     
12.984999656677     0.672722995281     0.000001089801     
13.090000152588     0.678004026413     0.000001104804     
13.194999694824     0.683286011219     0.000001119422     
13.300000190735     0.688566982746     0.000001132886     
13.404999732971     0.693849027157     0.000001146734     
13.510000228882     0.698965013027     0.000001161352     
13.614999771118     0.704411983490     0.000001174046     
13.720000267029     0.709528028965     0.000001187510     
13.824999809265     0.714809000492     0.000001202128     
13.930000305176     0.720090985298     0.000001215207     
14.034999847412     0.725372016430     0.000001228286     
14.140000343323     0.730654001236     0.000001242904     
14.244999885559     0.735934972763     0.000001256368     
14.350000381470     0.741217017174     0.000001270217     
14.454999923706     0.746497988701     0.000001285219     
14.560000419617     0.751613974571     0.000001299068     
14.664999961853     0.757061004639     0.000001312532     
14.770000457764     0.762176990509     0.000001327919     
14.875000000000     0.767458975315     0.000001343306     
14.979999542236     0.772740006447     0.000001357155     
15.085000038147     0.778021991253     0.000001372542     
15.189999580383     0.783303022385     0.000001389083     
15.295000076294     0.788585007191     0.000001404086     
15.399999618530     0.793865978718     0.000001420242     
15.505000114441     0.798982024193     0.000001436784     
15.609999656677     0.804428994656     0.000001452555     
15.715000152588     0.809544980526     0.000001468712     
15.819999694824     0.814827024937     0.000001486023     
15.925000190735     0.820107996464     0.000001502564     
16.030000686646     0.825389981270     0.000001519875     
16.135000228882     0.830671012402     0.000001538339     
16.239999771118     0.835951983929     0.000001556035     
16.344999313354     0.841234028339     0.000001573345     
16.450000762939     0.846350014210     0.000001592195     
16.555000305176     0.851796984673     0.000001611044     
16.659999847412     0.856912970543     0.000001628739     
16.764999389648     0.862195014954     0.000001648358     
16.870000839233     0.867475986481     0.000001668361     
16.975000381470     0.872757017612     0.000001687211     
17.079999923706     0.878039002419     0.000001706830     
17.184999465942     0.883319973946     0.000001727602     
17.290000915527     0.888602018356     0.000001746836     
17.395000457764     0.893882989883     0.000001767225     
17.500000000000     0.898999989033     0.000001788382     
17.604999542236     0.904281020164     0.000001809155     
17.709999084473     0.909561991692     0.000001830312     
17.815000534058     0.914843976498     0.000001852239     
17.920000076294     0.920125007629     0.000001873781     
18.024999618530     0.925406992435     0.000001895323     
18.129999160767     0.930688023567     0.000001918019     
18.235000610352     0.935970008373     0.000001940331     
18.340000152588     0.941250979900     0.000001962258     
18.444999694824     0.946533024311     0.000001985723     
18.549999237061     0.951649010181     0.000002010343     
18.655000686646     0.957095026970     0.000002032654     
18.760000228882     0.962212026119     0.000002057274     
18.864999771118     0.967492997646     0.000002082663     
18.969999313354     0.972774982452     0.000002106513     
19.075000762939     0.978056013584     0.000002131902     
19.180000305176     0.983337998390     0.000002158445     
19.284999847412     0.988619029522     0.000002184988     
19.389999389648     0.993900001049     0.000002211146     
19.495000839233     0.999181985855     0.000002239613     
19.600000381470     1.004297971725     0.000002267694     
19.704999923706     1.009580016136     0.000002296161     
19.809999465942     1.014860987663     0.000002326166     
19.915000915527     1.020143032074     0.000002356171     
20.020000457764     1.025424003601     0.000002386561     
20.125000000000     1.030704975128     0.000002419259     
20.229999542236     1.035987019539     0.000002453111     
20.334999084473     1.041267991066     0.000002486193     
20.440000534058     1.046385049820     0.000002521584     
20.545000076294     1.051666021347     0.000002557744     
20.649999618530     1.056947946548     0.000002593519     
20.754999160767     1.062229037285     0.000002631218     
20.860000610352     1.067510008812     0.000002671225     
20.965000152588     1.072792053223     0.000002710847     
21.069999694824     1.077908039093     0.000002751623     
21.174999237061     1.083354949951     0.000002795092     
21.280000686646     1.088471055031     0.000002837792     
21.385000228882     1.093752980232     0.000002882799     
21.489999771118     1.099033951759     0.000002929346     
21.594999313354     1.104315042496     0.000002975892     
21.700000762939     1.109596967697     0.000003023593     
21.805000305176     1.114878058434     0.000003074371     
21.909999847412     1.119994997978     0.000003125148     
22.014999389648     1.125275969505     0.000003176311     
22.120000839233     1.130722999573     0.000003229782     
22.225000381470     1.135838985443     0.000003285560     
22.329999923706     1.141119956970     0.000003339800     
22.434999465942     1.146402001381     0.000003395964     
22.540000915527     1.151682972908     0.000003454051     
22.645000457764     1.156965017319     0.000003512522     
22.750000000000     1.162245988846     0.000003572148     
22.854999542236     1.167528033257     0.000003634466     
22.959999084473     1.172644019127     0.000003696400     
23.065000534058     1.177924990654     0.000003759103     
23.170000076294     1.183207035065     0.000003824114     
23.274999618530     1.188488006592     0.000003888740     
23.379999160767     1.193770051003     0.000003954521     
23.485000610352     1.198390960693     0.000003996066     
23.590000152588     1.195255041122     0.000003796801     
23.694999694824     1.189973950386     0.000003567916     
23.799999237061     1.184692025185     0.000003360958     
23.905000686646     1.179411053658     0.000003170925     
24.010000228882     1.174293994904     0.000002993203     
24.114999771118     1.169013023376     0.000002828559     
24.219999313354     1.163732051849     0.000002675456     
24.325000762939     1.158450007439     0.000002531201     
24.430000305176     1.153169035912     0.000002396178     
24.534999847412     1.147886991501     0.000002270003     
24.639999389648     1.142606019974     0.000002150367     
24.745000839233     1.137488961220     0.000002038040     
24.850000381470     1.132207989693     0.000001933022     
24.954999923706     1.126927018166     0.000001832620     
25.059999465942     1.121644973755     0.000001737604     
25.165000915527     1.116364002228     0.000001649897     
25.270000457764     1.111081957817     0.000001565652     
25.375000000000     1.105965971947     0.000001485638     
25.479999542236     1.100684046745     0.000001411779     
25.584999084473     1.095402956009     0.000001342537     
25.690000534058     1.090121984482     0.000001274833     
25.795000076294     1.084840059280     0.000001212899     
25.899999618530     1.079558968544     0.000001154428     
26.004999160767     1.074277043343     0.000001099034     
26.110000610352     1.068995952606     0.000001046332     
26.215000152588     1.063879013062     0.000000998247     
26.319999694824     1.058598041534     0.000000952470     
26.424999237061     1.053316950798     0.000000909001     
26.530000686646     1.048035025597     0.000000869379     
26.635000228882     1.042754054070     0.000000830911     
26.739999771118     1.037472009659     0.000000795136     
26.844999313354     1.032191038132     0.000000763207     
26.950000762939     1.026908993721     0.000000731663     
27.055000305176     1.021628022194     0.000000701658     
27.159999847412     1.016512036324     0.000000675115     
27.264999389648     1.011229991913     0.000000649726     
27.370000839233     1.005949020386     0.000000624722     
27.475000381470     1.000666975975     0.000000602410     
27.579999923706     0.995386004448     0.000000581638     
27.684999465942     0.990104019642     0.000000560865     
27.790000915527     0.984822988510     0.000000542016     
27.895000457764     0.979541003704     0.000000525090     
28.000000000000     0.974425017834     0.000000507779     
28.104999542236     0.968979001045     0.000000491622     
28.209999084473     0.963862001896     0.000000477004     
28.315000534058     0.958580970764     0.000000462387     
28.420000076294     0.953298985958     0.000000448538     
28.524999618530     0.948018014431     0.000000436613     
28.629999160767     0.942736029625     0.000000423918     
28.735000610352     0.937454998493     0.000000411609     
28.840000152588     0.932339012623     0.000000401222     
28.944999694824     0.927057027817     0.000000390451     
29.049999237061     0.921611011028     0.000000379680     
29.155000686646     0.916494011879     0.000000370448     
29.260000228882     0.911212980747     0.000000361600     
29.364999771118     0.905930995941     0.000000351598     
29.469999313354     0.900650024414     0.000000343135     
29.530000686646     0.891902983189     0.000000330298     
29.635000228882     0.886785984039     0.000000322893     
29.739999771118     0.881505012512     0.000000315994     
29.844999313354     0.876057982445     0.000000308042     
29.950000762939     0.870941996574     0.000000300890     
30.055000305176     0.865661025047     0.000000294496     
30.159999847412     0.860378980637     0.000000287722     
30.264999389648     0.855098009109     0.000000280444     
30.370000839233     0.849816024303     0.000000275101     
30.475000381470     0.844534993172     0.000000268790     
30.579999923706     0.839417994022     0.000000261807     
30.684999465942     0.834137022495     0.000000256926     
30.790000915527     0.828854978085     0.000000251710     
30.895000457764     0.823409020901     0.000000245189     
31.000000000000     0.818292975426     0.000000239804     
31.104999542236     0.813010990620     0.000000235134     
31.209999084473     0.807730019093     0.000000229370     
31.315000534058     0.802613019943     0.000000224195     
31.420000076294     0.797331988811     0.000000219946     
31.524999618530     0.791885018349     0.000000214603     
31.629999160767     0.786768972874     0.000000209386     
31.735000610352     0.781488001347     0.000000205432     
31.840000152588     0.776206016541     0.000000200299     
31.944999694824     0.770924985409     0.000000195209     
32.049999237061     0.765643000603     0.000000191717     
32.154998779297     0.760362029076     0.000000186921     
32.259998321533     0.755079984665     0.000000181872     
32.365001678467     0.749963998795     0.000000178296     
32.470001220703     0.744683027267     0.000000174089     
32.575000762939     0.739400982857     0.000000168746     
32.680000305176     0.734120011330     0.000000165338     
32.784999847412     0.728838026524     0.000000161636     
32.889999389648     0.723556995392     0.000000156293     
32.994998931885     0.718275010586     0.000000153011     
33.099998474121     0.712993979454     0.000000149393     
33.205001831055     0.707877993584     0.000000144471     
33.310001373291     0.702596008778     0.000000140432     
33.415000915527     0.697314977646     0.000000137109     
33.520000457764     0.692032992840     0.000000132775     
33.625000000000     0.686752021313     0.000000128695     
33.729999542236     0.681469976902     0.000000125750     
33.834999084473     0.676189005375     0.000000121374     
33.939998626709     0.670907974243     0.000000117672     
34.044998168945     0.665625989437     0.000000114685     
34.150001525879     0.660345017910     0.000000111151     
34.255001068115     0.655062973499     0.000000107070     
34.360000610352     0.649782001972     0.000000104209     
34.465000152588     0.644665002823     0.000000101180     
34.569999694824     0.639218986034     0.000000097057     
34.674999237061     0.634103000164     0.000000094323     
34.779998779297     0.628821015358     0.000000091714     
34.884998321533     0.623539984226     0.000000087507     
34.990001678467     0.618257999420     0.000000084731     
35.095001220703     0.612977027893     0.000000081870     
35.200000762939     0.607694983482     0.000000077957     
35.305000305176     0.602414011955     0.000000074465     
