
Cycle 1
Physical Cycle 1
Step 1

Time (s),          Potential (V),         Current (A)
0.104999996722     0.001818999997     -0.000001936455     
0.209999993443     0.007110000122     -0.000001799226     
0.314999997616     0.012236000039     -0.000001677245     
0.419999986887     0.017526999116     -0.000001566699     
0.449999988079     0.027778999880     -0.000001452685     
0.555000007153     0.032905001193     -0.000001368227     
0.660000026226     0.038196001202     -0.000001288759     
0.764999985695     0.043487001210     -0.000001214666     
0.870000004768     0.048778001219     -0.000001145564     
0.975000023842     0.053904000670     -0.000001080300     
1.080000042915     0.059195000678     -0.000001018876     
1.184999942780     0.064487002790     -0.000000962442     
1.289999961853     0.069778002799     -0.000000909848     
1.394999980927     0.074904002249     -0.000000858405     
1.500000000000     0.080360002816     -0.000000809649     
1.605000019073     0.085486002266     -0.000000763965     
1.710000038147     0.090777002275     -0.000000720584     
1.815000057220     0.096069000661     -0.000000679507     
1.919999957085     0.101360000670     -0.000000641116     
2.025000095367     0.106486000121     -0.000000603878     
2.130000114441     0.111777000129     -0.000000567023     
2.234999895096     0.117068000138     -0.000000532472     
2.339999914169     0.122359000146     -0.000000500992     
2.444999933243     0.127651005983     -0.000000469896     
2.549999952316     0.132942005992     -0.000000440719     
2.654999971390     0.138233006001     -0.000000412695     
2.759999990463     0.143524006009     -0.000000385438     
2.865000009537     0.148650005460     -0.000000358181     
2.970000028610     0.153941005468     -0.000000334379     
3.075000047684     0.159233003855     -0.000000312112     
3.180000066757     0.164524003863     -0.000000288694     
3.230000019073     0.173618003726     -0.000000258766     
3.335000038147     0.178909003735     -0.000000238286     
3.440000057220     0.184200003743     -0.000000219947     
3.545000076294     0.189492002130     -0.000000201524     
3.650000095367     0.194618001580     -0.000000183898     
3.755000114441     0.199909001589     -0.000000168076     
3.859999895096     0.205200001597     -0.000000151457     
3.964999914169     0.210491001606     -0.000000134461     
4.070000171661     0.215617001057     -0.000000119227     
4.175000190735     0.220908001065     -0.000000106050     
4.280000209808     0.226199001074     -0.000000091361     
4.385000228882     0.231490999460     -0.000000077177     
4.489999771118     0.236781999469     -0.000000063663     
4.594999790192     0.241907998919     -0.000000049605     
4.699999809265     0.247198998928     -0.000000035420     
4.804999828339     0.252490013838     -0.000000023208     
4.909999847412     0.257780998945     -0.000000009820     
5.014999866486     0.263072997332     0.000000004700     
5.119999885559     0.268364012241     0.000000019389     
5.199999809265     0.275474011898     0.000000036212     
5.304999828339     0.280764997005     0.000000051478     
5.409999847412     0.285890996456     0.000000065959     
5.514999866486     0.291016995907     0.000000080115     
5.619999885559     0.297796010971     0.000000104539     
5.724999904633     0.303086996078     0.000000120570     
5.829999923706     0.308378994465     0.000000136769     
5.934999942780     0.313670009375     0.000000154731     
6.039999961853     0.318796008825     0.000000173616     
6.144999980927     0.324086993933     0.000000192585     
6.250000000000     0.329378008842     0.000000213778     
6.355000019073     0.334504008293     0.000000237111     
6.460000038147     0.339794993401     0.000000259479     
6.565000057220     0.345086008310     0.000000282435     
6.670000076294     0.350212007761     0.000000307615     
6.775000095367     0.355504006147     0.000000334432     
6.880000114441     0.360960006714     0.000000361039     
6.985000133514     0.366086006165     0.000000389240     
7.090000152588     0.371376991272     0.000000417861     
7.195000171661     0.376502990723     0.000000445224     
7.300000190735     0.381794005632     0.000000473467     
7.405000209808     0.387086004019     0.000000503473     
7.510000228882     0.392376989126     0.000000532808     
7.614999771118     0.397502988577     0.000000560758     
7.719999790192     0.402794003487     0.000000589757     
7.824999809265     0.408084988594     0.000000617664     
7.929999828339     0.413376003504     0.000000644103     
8.034999847412     0.418502002954     0.000000671424     
8.140000343323     0.423792988062     0.000000700297     
8.244999885559     0.429084986448     0.000000726694     
8.350000381470     0.434376001358     0.000000751370     
8.454999923706     0.439502000809     0.000000776886     
8.560000419617     0.444792985916     0.000000802192     
8.664999961853     0.450084000826     0.000000826406     
8.770000457764     0.455374985933     0.000000850831     
8.875000000000     0.460500985384     0.000000875465     
8.979999542236     0.465792000294     0.000000897624     
9.085000038147     0.471083998680     0.000000919488     
9.189999580383     0.476209014654     0.000000942444     
9.295000076294     0.481501013041     0.000000965190     
9.399999618530     0.486791998148     0.000000986551     
9.505000114441     0.492083013058     0.000001008080     
9.609999656677     0.497373998165     0.000001028643     
9.704999923706     0.504649996758     0.000001070319     
9.810000419617     0.509940981865     0.000001090666     
9.914999961853     0.515232026577     0.000001109477     
10.020000457764     0.520358026028     0.000001129056     
10.125000000000     0.525815010071     0.000001147483     
10.229999542236     0.530939996243     0.000001166294     
10.335000038147     0.536231994629     0.000001185105     
10.439999580383     0.541522979736     0.000001205452     
10.545000076294     0.546814024448     0.000001224263     
10.649999618530     0.551940023899     0.000001242307     
10.755000114441     0.557397007942     0.000001261118     
10.859999656677     0.562521994114     0.000001279161     
10.965000152588     0.567813992500     0.000001297205     
11.069999694824     0.573104977608     0.000001316784     
11.175000190735     0.578396022320     0.000001336747     
11.279999732971     0.583687007427     0.000001354022     
11.385000228882     0.588813006878     0.000001371298     
11.489999771118     0.594103991985     0.000001390877     
11.595000267029     0.599395990372     0.000001410072     
11.699999809265     0.604686975479     0.000001428499     
11.805000305176     0.609978020191     0.000001447694     
11.909999847412     0.615269005299     0.000001466890     
12.015000343323     0.620395004749     0.000001484165     
12.119999885559     0.625851988792     0.000001502592     
12.225000381470     0.630977988243     0.000001522555     
12.329999923706     0.636268973351     0.000001542518     
12.435000419617     0.641560018063     0.000001560178     
12.539999961853     0.646851003170     0.000001578989     
12.645000457764     0.652141988277     0.000001597416     
12.750000000000     0.657433986664     0.000001615844     
12.854999542236     0.662558972836     0.000001635039     
12.960000038147     0.667850971222     0.000001655385     
13.064999580383     0.673142015934     0.000001674197     
13.170000076294     0.678433001041     0.000001691856     
13.274999618530     0.683723986149     0.000001710667     
13.380000114441     0.689015984535     0.000001729862     
13.484999656677     0.694307029247     0.000001747906     
13.590000152588     0.699598014355     0.000001767485     
13.694999694824     0.704724013805     0.000001785912     
13.800000190735     0.710014998913     0.000001802804     
13.904999732971     0.715305984020     0.000001820463     
14.010000228882     0.720597028732     0.000001840042     
14.114999771118     0.725889027119     0.000001858853     
14.220000267029     0.731015026569     0.000001876513     
14.324999809265     0.736306011677     0.000001894556     
14.430000305176     0.741596996784     0.000001912984     
14.534999847412     0.746887981892     0.000001929491     
14.640000343323     0.752179026604     0.000001947151     
14.744999885559     0.757471024990     0.000001965962     
14.850000381470     0.762762010098     0.000001983622     
14.954999923706     0.767888009548     0.000001999746     
15.060000419617     0.773178994656     0.000002017021     
15.164999961853     0.778469979763     0.000002034297     
15.270000457764     0.783761024475     0.000002050421     
15.375000000000     0.789053022861     0.000002068080     
15.479999542236     0.794178009033     0.000002084588     
15.585000038147     0.799470007420     0.000002098792     
15.689999580383     0.804760992527     0.000002114148     
15.795000076294     0.810051977634     0.000002131424     
15.899999618530     0.815343022346     0.000002146012     
16.004999160767     0.820635020733     0.000002160600     
16.110000610352     0.825926005840     0.000002175957     
16.215000152588     0.831216990948     0.000002190161     
16.319999694824     0.836342990398     0.000002203597     
16.424999237061     0.841633975506     0.000002218186     
16.530000686646     0.846925020218     0.000002235077     
16.635000228882     0.852216005325     0.000002248898     
16.739999771118     0.857508003712     0.000002261951     
16.844999313354     0.862634003162     0.000002278074     
16.950000762939     0.867924988270     0.000002292279     
17.055000305176     0.873215973377     0.000002307251     
17.159999847412     0.878507018089     0.000002322991     
17.264999389648     0.883798003197     0.000002338347     
17.370000839233     0.888924002647     0.000002352168     
17.475000381470     0.894216001034     0.000002365988     
17.579999923706     0.899506986141     0.000002381728     
17.684999465942     0.904797971249     0.000002397852     
17.790000915527     0.910089015961     0.000002413976     
17.895000457764     0.915380001068     0.000002430484     
18.000000000000     0.920506000519     0.000002445840     
18.104999542236     0.925796985626     0.000002460044     
18.209999084473     0.931088984013     0.000002477320     
18.315000534058     0.936380028725     0.000002495363     
18.420000076294     0.941671013832     0.000002512639     
18.524999618530     0.946961998940     0.000002529530     
18.629999160767     0.952253997326     0.000002548341     
18.735000610352     0.957378983498     0.000002566385     
18.840000152588     0.962670981884     0.000002583277     
18.944999694824     0.967962026596     0.000002602856     
19.049999237061     0.973253011703     0.000002622818     
19.155000686646     0.978543996811     0.000002640478     
19.260000228882     0.983834981918     0.000002657754     
19.364999771118     0.988960981369     0.000002677716     
19.469999313354     0.994252979755     0.000002698447     
19.575000762939     0.999544024467     0.000002717258     
19.680000305176     1.004835009575     0.000002737221     
19.784999847412     1.010125994682     0.000002756800     
19.889999389648     1.015416979790     0.000002774076     
19.995000839233     1.020709037781     0.000002794039     
20.100000381470     1.025835037231     0.000002814769     
20.204999923706     1.031126022339     0.000002834732     
20.309999465942     1.036417007446     0.000002853544     
20.415000915527     1.041707992554     0.000002875042     
20.520000457764     1.046998977661     0.000002896924     
20.625000000000     1.052291035652     0.000002917655     
20.729999542236     1.057415962219     0.000002941457     
20.834999084473     1.062708020210     0.000002966411     
20.940000534058     1.067999005318     0.000002989445     
21.045000076294     1.073289990425     0.000003012479     
21.149999618530     1.078580975533     0.000003038200     
21.254999160767     1.083873033524     0.000003066225     
21.360000610352     1.089164018631     0.000003095018     
21.465000152588     1.094290018082     0.000003125730     
21.569999694824     1.099581003189     0.000003158362     
21.674999237061     1.104871988297     0.000003191377     
21.780000686646     1.110162973404     0.000003225161     
21.885000228882     1.115453958511     0.000003263935     
21.989999771118     1.120579957962     0.000003303477     
22.094999313354     1.126037001610     0.000003345322     
22.200000762939     1.131163001060     0.000003388319     
22.305000305176     1.136453986168     0.000003434771     
22.409999847412     1.141744971275     0.000003483143     
22.514999389648     1.146870970726     0.000003536889     
22.620000839233     1.152328014374     0.000003593323     
22.725000381470     1.157454013824     0.000003650524     
22.829999923706     1.162744998932     0.000003710029     
22.934999465942     1.168035984039     0.000003776828     
23.040000915527     1.173326969147     0.000003844779     
23.145000457764     1.178452968597     0.000003916184     
23.250000000000     1.183743953705     0.000003992197     
23.354999542236     1.189035058022     0.000004073584     
23.459999084473     1.194326996803     0.000004155355     
23.565000534058     1.197633981705     0.000004135776     
23.670000076294     1.193168997765     0.000003806772     
23.774999618530     1.188042998314     0.000003504257     
23.879999160767     1.182752013206     0.000003235526     
23.985000610352     1.177461028099     0.000002997507     
24.090000152588     1.172335028648     0.000002784057     
24.194999694824     1.167044043541     0.000002591338     
24.299999237061     1.161753058434     0.000002418199     
24.405000686646     1.156461000443     0.000002263102     
24.510000228882     1.151335954666     0.000002120291     
24.614999771118     1.146044015884     0.000001988996     
24.719999313354     1.140753030777     0.000001870754     
24.825000762939     1.135462045670     0.000001764030     
24.930000305176     1.130170941353     0.000001666135     
25.034999847412     1.124879002571     0.000001575918     
25.139999389648     1.119753956795     0.000001493379     
25.245000839233     1.114462018013     0.000001415831     
25.350000381470     1.109336972237     0.000001345193     
25.454999923706     1.103880047798     0.000001282233     
25.559999465942     1.098588943481     0.000001223496     
25.665000915527     1.093462944031     0.000001167446     
25.770000457764     1.088171958923     0.000001116387     
25.875000000000     1.082880020142     0.000001068399     
25.979999542236     1.077589035034     0.000001023099     
26.084999084473     1.072463035583     0.000000983173     
26.190000534058     1.067172050476     0.000000946318     
26.295000076294     1.061880946159     0.000000910232     
26.399999618530     1.056589961052     0.000000874913     
26.504999160767     1.051298022270     0.000000844200     
26.610000610352     1.046007037163     0.000000814640     
26.715000152588     1.040716052055     0.000000786231     
26.819999694824     1.035424947739     0.000000760894     
26.924999237061     1.030298948288     0.000000736708     
27.030000686646     1.025007963181     0.000000710987     
27.135000228882     1.019716978073     0.000000687952     
27.239999771118     1.014425039291     0.000000667989     
27.344999313354     1.009134054184     0.000000648794     
27.450000762939     1.004008054733     0.000000628831     
27.555000305176     0.998717010021     0.000000610020     
27.659999847412     0.993260025978     0.000000591977     
27.764999389648     0.988134980202     0.000000573933     
27.870000839233     0.982842981815     0.000000558194     
27.975000381470     0.977551996708     0.000000543605     
28.079999923706     0.972425997257     0.000000528633     
28.184999465942     0.966970026493     0.000000512509     
28.290000915527     0.961844027042     0.000000498689     
28.395000457764     0.956552982330     0.000000484868     
28.500000000000     0.951260983944     0.000000471432     
28.604999542236     0.945969998837     0.000000459147     
28.709999084473     0.940679013729     0.000000447630     
28.815000534058     0.935388028622     0.000000433809     
28.920000076294     0.930096983910     0.000000420373     
29.024999618530     0.924970984459     0.000000410391     
29.129999160767     0.919678986073     0.000000399258     
29.235000610352     0.914388000965     0.000000388125     
29.340000152588     0.909097015858     0.000000377376     
29.444999694824     0.903805971146     0.000000366243     
29.549999237061     0.898679971695     0.000000354342     
29.655000686646     0.893388986588     0.000000343592     
29.760000228882     0.888098001480     0.000000334763     
29.825000762939     0.879665017128     0.000000310133     
29.930000305176     0.874373018742     0.000000299600     
30.034999847412     0.869081974030     0.000000289360     
30.139999389648     0.863790988922     0.000000280127     
30.245000839233     0.858500003815     0.000000269761     
30.350000381470     0.853374004364     0.000000260948     
30.454999923706     0.848083019257     0.000000251422     
30.559999465942     0.842791020870     0.000000241224     
30.665000915527     0.837665975094     0.000000230565     
30.770000457764     0.832373976707     0.000000222129     
30.875000000000     0.827082991600     0.000000213022     
30.979999542236     0.821792006493     0.000000203790     
31.084999084473     0.816501021385     0.000000194809     
31.190000534058     0.811375021935     0.000000186080     
31.295000076294     0.806083977222     0.000000175504     
31.399999618530     0.800791978836     0.000000166985     
31.504999160767     0.795500993729     0.000000160354     
31.610000610352     0.790210008621     0.000000152800     
31.715000152588     0.784919023514     0.000000143148     
31.819999694824     0.779627978802     0.000000135007     
31.924999237061     0.774501979351     0.000000127201     
32.029998779297     0.769210994244     0.000000118598     
32.134998321533     0.763918995857     0.000000111547     
32.240001678467     0.758628010750     0.000000105378     
32.345001220703     0.753337025642     0.000000097111     
32.450000762939     0.748211026192     0.000000087836     
32.555000305176     0.742919981480     0.000000080450     
32.659999847412     0.737628996372     0.000000073022     
32.764999389648     0.732336997986     0.000000065048     
32.869998931885     0.727046012878     0.000000057494     
32.974998474121     0.721920013428     0.000000049563     
33.080001831055     0.716629028320     0.000000040162     
33.185001373291     0.711337983608     0.000000031643     
33.290000915527     0.706046998501     0.000000026229     
33.395000457764     0.700755000114     0.000000019095     
33.500000000000     0.695464015007     0.000000011415     
33.604999542236     0.690338015556     0.000000005749     
33.685001373291     0.682731986046     -0.000000001831     
33.790000915527     0.677441000938     -0.000000006035     
33.895000457764     0.672150015831     -0.000000007274     
34.000000000000     0.666858971119     -0.000000007675     
34.104999542236     0.661566972733     -0.000000006451     
34.209999084473     0.656275987625     -0.000000003815     
34.314998626709     0.650985002518     0.000000001358     
34.419998168945     0.645694017410     0.000000006672     
34.525001525879     0.640402019024     0.000000012775     
34.630001068115     0.635110974312     0.000000019695     
34.735000610352     0.629819989204     0.000000026699     
34.840000152588     0.624529004097     0.000000032157     
34.944999694824     0.619238018990     0.000000037551     
35.049999237061     0.613946020603     0.000000041907     
35.154998779297     0.608654975891     0.000000044471     
35.259998321533     0.603363990784     0.000000045817     
