
Cycle 1
Physical Cycle 1
Step 1

Time (s),          Potential (V),         Current (A)
0.104999996722     0.002808999969     -0.000007167441     
0.209999993443     0.008097000420     -0.000006584223     
0.314999997616     0.013384999707     -0.000006058560     
0.419999986887     0.018508000299     -0.000005578940     
0.524999976158     0.023795999587     -0.000005130016     
0.629999995232     0.029084000736     -0.000004707950     
0.735000014305     0.034207001328     -0.000004308906     
0.839999973774     0.039659999311     -0.000003932884     
0.944999992847     0.044948000461     -0.000003572210     
1.049999952316     0.050071001053     -0.000003230720     
1.154999971390     0.055358998477     -0.000002900742     
1.259999990463     0.060646999627     -0.000002589948     
1.320000052452     0.069406002760     -0.000002027501     
1.424999952316     0.074528001249     -0.000001751794     
1.529999971390     0.079816997051     -0.000001487656     
1.634999990463     0.084939002991     -0.000001233544     
1.740000009537     0.090227000415     -0.000000994085     
1.845000028610     0.095514997840     -0.000000765422     
1.950000047684     0.100803002715     -0.000000548327     
2.055000066757     0.106091998518     -0.000000342801     
2.160000085831     0.111213997006     -0.000000149228     
2.265000104904     0.116502001882     0.000000035090     
2.369999885559     0.121789999306     0.000000208226     
2.474999904633     0.127077996731     0.000000371336     
2.579999923706     0.132366999984     0.000000527119     
2.684999942780     0.137655004859     0.000000676733     
2.789999961853     0.142776995897     0.000000818635     
2.894999980927     0.148065000772     0.000000956681     
3.000000000000     0.153353005648     0.000001089328     
3.105000019073     0.158641993999     0.000001216192     
3.210000038147     0.163763999939     0.000001336114     
3.315000057220     0.169052004814     0.000001451795     
3.420000076294     0.174339994788     0.000001557836     
3.525000095367     0.179627999663     0.000001655779     
3.630000114441     0.184751003981     0.000001744854     
3.734999895096     0.190038993955     0.000001825059     
3.839999914169     0.195326998830     0.000001892925     
3.944999933243     0.200615003705     0.000001950766     
4.050000190735     0.205902993679     0.000001996267     
4.155000209808     0.211191996932     0.000002027886     
4.260000228882     0.216480001807     0.000002046395     
4.364999771118     0.221768006682     0.000002053336     
4.469999790192     0.226889997721     0.000002045238     
4.574999809265     0.232178002596     0.000002024801     
4.679999828339     0.237467005849     0.000001993182     
4.784999847412     0.242754995823     0.000001951151     
4.889999866486     0.248043000698     0.000001897167     
4.994999885559     0.253331005573     0.000001836241     
5.099999904633     0.258619010448     0.000001768375     
5.204999923706     0.263741999865     0.000001693568     
5.309999942780     0.269030004740     0.000001615291     
5.414999961853     0.274318009615     0.000001536242     
5.519999980927     0.279606014490     0.000001455266     
5.625000000000     0.284893989563     0.000001375832     
5.730000019073     0.290181994438     0.000001299097     
5.835000038147     0.295469999313     0.000001226603     
5.940000057220     0.300758004189     0.000001157966     
6.045000076294     0.306046009064     0.000001096269     
6.150000095367     0.311168998480     0.000001040357     
6.255000114441     0.316457003355     0.000000989843     
6.360000133514     0.321745008230     0.000000944727     
6.465000152588     0.327033013105     0.000000906167     
6.570000171661     0.332320988178     0.000000871077     
6.675000190735     0.337608993053     0.000000840615     
6.780000209808     0.342896997929     0.000000815165     
6.885000228882     0.348185002804     0.000000793571     
6.989999771118     0.353473007679     0.000000773520     
7.094999790192     0.358761012554     0.000000757710     
7.199999809265     0.363884001970     0.000000745371     
7.304999828339     0.369172006845     0.000000733031     
7.409999847412     0.374460011721     0.000000723777     
7.514999866486     0.379583001137     0.000000717607     
7.619999885559     0.385035991669     0.000000710666     
7.724999904633     0.390323996544     0.000000706425     
7.829999923706     0.395446985960     0.000000704111     
7.934999942780     0.400734990835     0.000000702569     
8.039999961853     0.406022995710     0.000000700641     
8.145000457764     0.411311000586     0.000000700641     
8.250000000000     0.416599005461     0.000000701797     
8.354999542236     0.421887010336     0.000000702569     
8.460000038147     0.427174985409     0.000000704111     
8.564999580383     0.432298004627     0.000000706810     
8.670000076294     0.437586009502     0.000000708738     
8.774999618530     0.442874014378     0.000000711438     
8.880000114441     0.448161989450     0.000000715294     
8.984999656677     0.453449994326     0.000000718764     
9.090000152588     0.458573013544     0.000000721463     
9.194999694824     0.463860988617     0.000000725319     
9.300000190735     0.469148993492     0.000000730332     
9.404999732971     0.474436998367     0.000000733031     
9.510000228882     0.479725003242     0.000000736116     
9.614999771118     0.485013008118     0.000000740358     
9.720000267029     0.490301012993     0.000000742671     
9.824999809265     0.495590001345     0.000000745756     
9.930000305176     0.500877976418     0.000000749227     
10.034999847412     0.505999982357     0.000000751540     
10.140000343323     0.511287987232     0.000000753854     
10.244999885559     0.516577005386     0.000000756553     
10.350000381470     0.521865010262     0.000000758867     
10.454999923706     0.527153015137     0.000000760409     
10.560000419617     0.532275021076     0.000000762337     
10.664999961853     0.537729024887     0.000000764651     
10.770000457764     0.543017029762     0.000000765808     
10.875000000000     0.548139989376     0.000000767350     
10.979999542236     0.553427994251     0.000000769664     
11.085000038147     0.558715999126     0.000000771592     
11.189999580383     0.564004004002     0.000000772748     
11.295000076294     0.569292008877     0.000000775062     
11.399999618530     0.574415028095     0.000000777761     
11.505000114441     0.579868018627     0.000000779304     
11.609999656677     0.585156023502     0.000000781232     
11.715000152588     0.590278983116     0.000000785088     
11.819999694824     0.595566987991     0.000000787016     
11.925000190735     0.600854992867     0.000000790101     
12.029999732971     0.605978012085     0.000000794342     
12.135000228882     0.611266016960     0.000000797427     
12.239999771118     0.616719007492     0.000000800897     
12.345000267029     0.621842026711     0.000000805910     
12.449999809265     0.627129971981     0.000000810152     
12.555000305176     0.632417976856     0.000000814394     
12.659999847412     0.637705981731     0.000000819406     
12.765000343323     0.642993986607     0.000000825576     
12.869999885559     0.648281991482     0.000000830589     
12.975000381470     0.653569996357     0.000000836759     
13.079999923706     0.658858001232     0.000000843314     
13.185000419617     0.663981020451     0.000000849869     
13.289999961853     0.669269025326     0.000000856424     
13.395000457764     0.674556970596     0.000000864136     
13.500000000000     0.679844975471     0.000000871848     
13.604999542236     0.684967994690     0.000000879175     
13.710000038147     0.690420985222     0.000000886887     
13.814999580383     0.695708990097     0.000000895756     
13.920000076294     0.700832009315     0.000000904239     
14.024999618530     0.706120014191     0.000000912337     
14.130000114441     0.711408019066     0.000000921977     
14.234999656677     0.716696023941     0.000000931231     
14.340000152588     0.721984028816     0.000000940100     
14.444999694824     0.727271974087     0.000000951283     
14.550000190735     0.732394993305     0.000000961308     
14.654999732971     0.737682998180     0.000000970948     
14.760000228882     0.742971003056     0.000000981745     
14.864999771118     0.748259007931     0.000000994085     
14.970000267029     0.753547012806     0.000001004110     
15.074999809265     0.758835017681     0.000001016450     
15.180000305176     0.763957977295     0.000001029174     
15.284999847412     0.769411027431     0.000001041128     
15.390000343323     0.774699985981     0.000001053853     
15.494999885559     0.779821991920     0.000001068120     
15.600000381470     0.785109996796     0.000001082002     
15.704999923706     0.790398001671     0.000001095113     
15.810000419617     0.795686006546     0.000001109765     
15.914999961853     0.800809025764     0.000001125190     
16.020000457764     0.806096971035     0.000001140228     
16.125000000000     0.811384975910     0.000001155267     
16.229999542236     0.816672980785     0.000001171848     
16.334999084473     0.821960985661     0.000001188043     
16.440000534058     0.827250003815     0.000001203853     
16.545000076294     0.832538008690     0.000001221590     
16.649999618530     0.837826013565     0.000001237786     
16.754999160767     0.842948019505     0.000001253981     
16.860000610352     0.848236024380     0.000001271719     
16.965000152588     0.853524982929     0.000001288300     
17.069999694824     0.858812987804     0.000001304495     
17.174999237061     0.864100992680     0.000001319919     
17.280000686646     0.869222998619     0.000001336114     
17.385000228882     0.874677002430     0.000001351153     
17.489999771118     0.879965007305     0.000001365806     
17.594999313354     0.885088026524     0.000001380844     
17.700000762939     0.890375971794     0.000001393569     
17.805000305176     0.895663976669     0.000001406680     
17.909999847412     0.900951981544     0.000001419405     
18.014999389648     0.906239986420     0.000001432130     
18.120000839233     0.911363005638     0.000001443312     
18.225000381470     0.916651010513     0.000001454495     
18.329999923706     0.921939015388     0.000001465677     
18.434999465942     0.927227020264     0.000001476088     
18.540000915527     0.932515025139     0.000001486885     
18.645000457764     0.937802970409     0.000001498068     
18.750000000000     0.943090975285     0.000001508479     
18.854999542236     0.948213994503     0.000001518505     
18.959999084473     0.953501999378     0.000001528916     
19.065000534058     0.958790004253     0.000001540098     
19.170000076294     0.964078009129     0.000001548967     
19.274999618530     0.969366014004     0.000001559764     
19.379999160767     0.974488973618     0.000001570947     
19.485000610352     0.979776978493     0.000001580972     
19.590000152588     0.985064983368     0.000001591769     
19.694999694824     0.990352988243     0.000001603337     
19.799999237061     0.995640993118     0.000001614134     
19.905000686646     1.000928997993     0.000001625317     
20.010000228882     1.006052017212     0.000001637656     
20.114999771118     1.011505007744     0.000001649995     
20.219999313354     1.016628026962     0.000001661178     
20.325000762939     1.021916031837     0.000001673517     
20.430000305176     1.027204036713     0.000001687399     
20.534999847412     1.032492041588     0.000001700124     
20.639999389648     1.037780046463     0.000001713234     
20.745000839233     1.043068051338     0.000001728273     
20.850000381470     1.048190951347     0.000001742926     
20.954999923706     1.053643941879     0.000001757193     
21.059999465942     1.058766961098     0.000001773003     
21.165000915527     1.064054965973     0.000001789969     
21.270000457764     1.069342970848     0.000001805779     
21.375000000000     1.074630975723     0.000001822745     
21.479999542236     1.079918980598     0.000001841254     
21.584999084473     1.085206985474     0.000001858992     
21.690000534058     1.090330004692     0.000001877887     
21.795000076294     1.095782995224     0.000001898324     
21.899999618530     1.100906014442     0.000001918761     
22.004999160767     1.106194019318     0.000001939583     
22.110000610352     1.111482024193     0.000001963105     
22.215000152588     1.116770029068     0.000001986241     
22.319999694824     1.122058033943     0.000002010534     
22.424999237061     1.127181053162     0.000002035213     
22.530000686646     1.132469058037     0.000002062205     
22.635000228882     1.137756943703     0.000002089197     
22.739999771118     1.143044948578     0.000002118117     
22.844999313354     1.148332953453     0.000002148580     
22.950000762939     1.153620958328     0.000002179814     
23.055000305176     1.158743977547     0.000002211819     
23.159999847412     1.164198040962     0.000002247294     
23.264999389648     1.169486045837     0.000002283155     
23.370000839233     1.174774050713     0.000002320173     
23.475000381470     1.179895997047     0.000002359505     
23.579999923706     1.185184001923     0.000002401535     
23.684999465942     1.190472960472     0.000002443952     
23.790000915527     1.195595026016     0.000002489453     
23.895000457764     1.198405027390     0.000002452821     
24.000000000000     1.193611979485     0.000002252693     
24.104999542236     1.188323974609     0.000002078400     
24.209999084473     1.183035969734     0.000001927629     
24.315000534058     1.177912950516     0.000001793440     
24.420000076294     1.172624945641     0.000001672746     
24.524999618530     1.167336940765     0.000001565934     
24.629999160767     1.162214994431     0.000001469533     
24.735000610352     1.156926035881     0.000001380844     
24.840000152588     1.151638031006     0.000001301796     
24.944999694824     1.146350026131     0.000001229688     
25.049999237061     1.141062021255     0.000001162979     
25.155000686646     1.135774016380     0.000001102439     
25.260000228882     1.130486011505     0.000001047683     
25.364999771118     1.125362992287     0.000000996398     
25.469999313354     1.120074987411     0.000000948583     
25.575000762939     1.114786982536     0.000000904625     
25.680000305176     1.109498977661     0.000000864522     
25.784999847412     1.104210972786     0.000000826347     
25.889999389648     1.098922967911     0.000000791257     
25.995000839233     1.093634963036     0.000000758867     
26.100000381470     1.088346958160     0.000000728790     
26.204999923706     1.083224058151     0.000000699484     
26.309999465942     1.077936053276     0.000000673648     
26.415000915527     1.072648048401     0.000000648199     
26.520000457764     1.067360043526     0.000000624677     
26.625000000000     1.062072038651     0.000000603083     
26.729999542236     1.056949019432     0.000000583032     
26.834999084473     1.051496028900     0.000000562595     
26.940000534058     1.046208024025     0.000000544086     
27.045000076294     1.041085004807     0.000000527505     
27.149999618530     1.035796999931     0.000000510538     
27.254999160767     1.030508995056     0.000000494729     
27.360000610352     1.025220990181     0.000000480847     
27.465000152588     1.019932985306     0.000000465808     
27.569999694824     1.014809966087     0.000000451927     
27.674999237061     1.009356975555     0.000000440359     
27.780000686646     1.004233956337     0.000000428405     
27.885000228882     0.998946011066     0.000000416066     
27.989999771118     0.993658006191     0.000000405269     
28.094999313354     0.988370001316     0.000000394857     
28.200000762939     0.983081996441     0.000000384446     
28.305000305176     0.977793991566     0.000000374806     
28.409999847412     0.972670972347     0.000000365937     
28.514999389648     0.967383027077     0.000000356683     
28.620000839233     0.962095022202     0.000000347428     
28.725000381470     0.956807017326     0.000000340102     
28.825000762939     0.950196981430     0.000000337213     
28.930000305176     0.944908976555     0.000000329911     
29.034999847412     0.939620971680     0.000000322989     
29.139999389648     0.934333026409     0.000000315686     
29.245000839233     0.929044008255     0.000000308342     
29.350000381470     0.923756003380     0.000000302306     
29.454999923706     0.918467998505     0.000000295215     
29.559999465942     0.913345992565     0.000000288292     
29.665000915527     0.908057987690     0.000000282763     
29.770000457764     0.902769029140     0.000000277149     
29.875000000000     0.897481024265     0.000000269973     
29.979999542236     0.892193019390     0.000000264359     
30.084999084473     0.887071013451     0.000000259210     
30.190000534058     0.881783008575     0.000000253005     
30.295000076294     0.876329004765     0.000000247391     
30.399999618530     0.871205985546     0.000000242706     
30.504999160767     0.865917980671     0.000000237134     
30.610000610352     0.860629975796     0.000000231900     
30.715000152588     0.855341970921     0.000000227510     
30.819999694824     0.850219011307     0.000000222783     
30.924999237061     0.844931006432     0.000000217464     
31.030000686646     0.839643001556     0.000000212652     
31.135000228882     0.834354996681     0.000000208980     
31.239999771118     0.829232990742     0.000000203788     
31.344999313354     0.823778986931     0.000000198850     
31.450000762939     0.818490982056     0.000000195346     
31.555000305176     0.813202977180     0.000000191126     
31.659999847412     0.808080017567     0.000000185934     
31.764999389648     0.802792012691     0.000000182726     
31.870000839233     0.797504007816     0.000000179054     
31.975000381470     0.792380988598     0.000000174157     
32.080001831055     0.787092983723     0.000000170443     
32.185001373291     0.781804978848     0.000000167108     
32.290000915527     0.776351988316     0.000000162676     
32.395000457764     0.771229028702     0.000000158835     
32.500000000000     0.765941023827     0.000000155923     
32.604999542236     0.760653018951     0.000000151913     
32.709999084473     0.755365014076     0.000000147692     
32.814998626709     0.750241994858     0.000000144864     
32.919998168945     0.744953989983     0.000000141656     
33.025001525879     0.739665985107     0.000000137350     
33.130001068115     0.734377980232     0.000000133974     
33.235000610352     0.729089975357     0.000000130892     
33.340000152588     0.723801970482     0.000000126882     
33.444999694824     0.718514025211     0.000000123083     
33.549999237061     0.713391005993     0.000000120255     
33.654998779297     0.708103001118     0.000000116625     
33.759998321533     0.702814996243     0.000000112489     
33.865001678467     0.697526991367     0.000000109745     
33.970001220703     0.692238986492     0.000000106917     
34.075000762939     0.687116026878     0.000000102781     
34.180000305176     0.681662976742     0.000000100164     
34.284999847412     0.676540017128     0.000000097251     
34.389999389648     0.671252012253     0.000000092777     
34.494998931885     0.665964007378     0.000000089738     
34.599998474121     0.660676002502     0.000000086910     
34.705001831055     0.655387997627     0.000000082984     
34.810001373291     0.650099992752     0.000000078890     
34.915000915527     0.644976973534     0.000000076442     
35.020000457764     0.639689028263     0.000000072981     
35.125000000000     0.634401023388     0.000000068591     
35.229999542236     0.629113018513     0.000000064919     
35.334999084473     0.623825013638     0.000000061626     
35.439998626709     0.618537008762     0.000000057110     
