
Cycle 1
Physical Cycle 1
Step 1

Time (s),          Potential (V),         Current (A)
0.104999996722     0.002641000086     -0.000000328576     
0.209999993443     0.007922000252     -0.000000298011     
0.314999997616     0.013203999959     -0.000000271266     
0.419999986887     0.018485000357     -0.000000248342     
0.449999988079     0.028552999720     -0.000000186955     
0.555000007153     0.033668998629     -0.000000166952     
0.660000026226     0.038950998336     -0.000000148872     
0.764999985695     0.044231999665     -0.000000130792     
0.795000016689     0.054299999028     -0.000000098446     
0.899999976158     0.059746000916     -0.000000084184     
1.004999995232     0.064862996340     -0.000000070721     
1.110000014305     0.070143997669     -0.000000056964     
1.215000033379     0.075425997376     -0.000000044469     
1.320000052452     0.080706998706     -0.000000032689     
1.424999952316     0.085988000035     -0.000000019899     
1.529999971390     0.091269999743     -0.000000008078     
1.634999990463     0.096386000514     0.000000003155     
1.740000009537     0.101668000221     0.000000015608     
1.850000023842     0.107608996332     0.000000029094     
1.955000042915     0.112726002932     0.000000041896     
2.059999942780     0.117842003703     0.000000053950     
2.164999961853     0.123122997582     0.000000067487     
2.279999971390     0.134512007236     0.000000100002     
2.384999990463     0.139792993665     0.000000114979     
2.490000009537     0.145073994994     0.000000130882     
2.595000028610     0.150355994701     0.000000148804     
2.700000047684     0.155471995473     0.000000166306     
2.805000066757     0.160753995180     0.000000184565     
2.910000085831     0.166034996510     0.000000204170     
3.015000104904     0.171316996217     0.000000224027     
3.119999885559     0.176597997546     0.000000243127     
3.224999904633     0.181713998318     0.000000264247     
3.329999923706     0.186995998025     0.000000284567     
3.434999942780     0.192276999354     0.000000304088     
3.539999961853     0.197558999062     0.000000324576     
3.644999980927     0.202840000391     0.000000344770     
3.750000000000     0.208122000098     0.000000363155     
3.855000019073     0.213238000870     0.000000382297     
3.960000038147     0.218519002199     0.000000401776     
4.065000057220     0.223801001906     0.000000419740     
4.170000076294     0.229082003236     0.000000437915     
4.275000095367     0.234364002943     0.000000456552     
4.380000114441     0.239645004272     0.000000474054     
4.485000133514     0.244762003422     0.000000491261     
4.590000152588     0.250043004751     0.000000509519     
4.695000171661     0.255324006081     0.000000526390     
4.800000190735     0.260605990887     0.000000543302     
4.905000209808     0.265886992216     0.000000561014     
5.010000228882     0.271169006824     0.000000578011     
5.114999771118     0.276284992695     0.000000594040     
5.219999790192     0.281567007303     0.000000611205     
5.324999809265     0.286848008633     0.000000627907     
5.429999828339     0.292129009962     0.000000642968     
5.534999847412     0.297410994768     0.000000659165     
5.639999866486     0.302527010441     0.000000675320     
5.744999885559     0.307974010706     0.000000689877     
5.849999904633     0.313089996576     0.000000704980     
5.954999923706     0.318372011185     0.000000720547     
6.059999942780     0.323653012514     0.000000734472     
6.164999961853     0.328934013844     0.000000748313     
6.269999980927     0.334215998650     0.000000763375     
6.375000000000     0.339332014322     0.000000776122     
6.480000019073     0.344613999128     0.000000789290     
6.585000038147     0.349895000458     0.000000803300     
6.690000057220     0.355176985264     0.000000816174     
6.795000076294     0.360457986593     0.000000828248     
6.900000095367     0.365574002266     0.000000841374     
7.005000114441     0.371021002531     0.000000853448     
7.110000133514     0.376136988401     0.000000864681     
7.215000152588     0.381419003010     0.000000877008     
7.320000171661     0.386700004339     0.000000888914     
7.425000190735     0.391981989145     0.000000899642     
7.530000209808     0.397262990475     0.000000910917     
7.635000228882     0.402379006147     0.000000922571     
7.739999771118     0.407826006413     0.000000932836     
7.844999790192     0.412941992283     0.000000943732     
7.949999809265     0.418224006891     0.000000955344     
8.055000305176     0.423505008221     0.000000965483     
8.159999847412     0.428622007370     0.000000976085     
8.265000343323     0.434067994356     0.000000987907     
8.369999885559     0.439350008965     0.000000998550     
8.475000381470     0.444465994835     0.000001009321     
8.579999923706     0.449746996164     0.000001021269     
8.685000419617     0.455029010773     0.000001032712     
8.744999885559     0.464105993509     0.000001056334     
8.850000381470     0.469388008118     0.000001067490     
8.954999923706     0.474669009447     0.000001078261     
9.060000419617     0.479950994253     0.000001091725     
9.164999961853     0.485231995583     0.000001104419     
9.270000457764     0.490512996912     0.000001116729     
9.375000000000     0.495795011520     0.000001130193     
9.479999542236     0.501075983047     0.000001144426     
9.585000038147     0.506192982197     0.000001157120     
9.689999580383     0.511474013329     0.000001170584     
9.795000076294     0.516755998135     0.000001185202     
9.899999618530     0.522037029266     0.000001199051     
10.005000114441     0.527318000793     0.000001212899     
10.109999656677     0.532599985600     0.000001227902     
10.215000152588     0.537881016731     0.000001242135     
10.319999694824     0.543163001537     0.000001255983     
10.425000190735     0.548443973064     0.000001271371     
10.529999732971     0.553726017475     0.000001285604     
10.635000228882     0.558842003345     0.000001299837     
10.739999771118     0.564288973808     0.000001315609     
10.845000267029     0.569405019283     0.000001334843     
10.949999809265     0.574685990810     0.000001348692     
11.055000305176     0.579967975616     0.000001364848     
11.159999847412     0.585249006748     0.000001381005     
11.265000343323     0.590530991554     0.000001395623     
11.369999885559     0.595812022686     0.000001411779     
11.475000381470     0.601094007492     0.000001427551     
11.579999923706     0.606374979019     0.000001442938     
11.685000419617     0.611656010151     0.000001457941     
11.789999961853     0.616773009300     0.000001473713     
11.895000457764     0.622053980827     0.000001487561     
12.000000000000     0.627336025238     0.000001500641     
12.104999542236     0.632616996765     0.000001514489     
12.210000038147     0.637898981571     0.000001526030     
12.314999580383     0.643180012703     0.000001537185     
12.420000076294     0.648295998573     0.000001548726     
12.524999618530     0.653743028641     0.000001558343     
12.630000114441     0.658859014511     0.000001566806     
12.734999656677     0.664140999317     0.000001575269     
12.840000152588     0.669421970844     0.000001583732     
12.944999694824     0.674704015255     0.000001589887     
13.050000190735     0.679984986782     0.000001597196     
13.154999732971     0.685266017914     0.000001604120     
13.260000228882     0.690548002720     0.000001609121     
13.364999771118     0.695828974247     0.000001614891     
13.470000267029     0.701111018658     0.000001621430     
13.574999809265     0.706391990185     0.000001626047     
13.680000305176     0.711673974991     0.000001631432     
13.784999847412     0.716790020466     0.000001637202     
13.890000343323     0.722235977650     0.000001642203     
13.994999885559     0.727352976799     0.000001647589     
14.100000381470     0.732634007931     0.000001654513     
14.204999923706     0.737915992737     0.000001659899     
14.310000419617     0.743197023869     0.000001665669     
14.414999961853     0.748479008675     0.000001672593     
14.520000457764     0.753759980202     0.000001679133     
14.625000000000     0.759041011333     0.000001685287     
14.729999542236     0.764322996140     0.000001692981     
14.835000038147     0.769604027271     0.000001700675     
14.939999580383     0.774886012077     0.000001707984     
15.045000076294     0.780001997948     0.000001716831     
15.149999618530     0.785283982754     0.000001725679     
15.255000114441     0.790565013885     0.000001733757     
15.359999656677     0.795846998692     0.000001743374     
15.465000152588     0.801127970219     0.000001753376     
15.569999694824     0.806409001350     0.000001762608     
15.675000190735     0.811690986156     0.000001772995     
15.779999732971     0.816972017288     0.000001784535     
15.885000228882     0.822254002094     0.000001795306     
15.989999771118     0.827369987965     0.000001806847     
16.094999313354     0.832817018032     0.000001819926     
16.200000762939     0.838097989559     0.000001831851     
16.305000305176     0.843379020691     0.000001843776     
16.409999847412     0.848496019840     0.000001857625     
16.514999389648     0.853776991367     0.000001871088     
16.620000839233     0.859058976173     0.000001884552     
16.725000381470     0.864340007305     0.000001899170     
16.829999923706     0.869621992111     0.000001913788     
16.934999465942     0.874737977982     0.000001928021     
17.040000915527     0.880183994770     0.000001943793     
17.145000457764     0.885465979576     0.000001959950     
17.250000000000     0.890582025051     0.000001974568     
17.354999542236     0.895864009857     0.000001991494     
17.459999084473     0.901144981384     0.000002009189     
17.565000534058     0.906427025795     0.000002026115     
17.670000076294     0.911707997322     0.000002043810     
17.774999618530     0.916989028454     0.000002063044     
17.879999160767     0.922271013260     0.000002081509     
17.985000610352     0.927551984787     0.000002100358     
18.090000152588     0.932668983936     0.000002121131     
18.194999694824     0.937950015068     0.000002141519     
18.299999237061     0.943231999874     0.000002162677     
18.405000686646     0.948512971401     0.000002185373     
18.510000228882     0.953794002533     0.000002208454     
18.614999771118     0.959075987339     0.000002231534     
18.719999313354     0.964357018471     0.000002256923     
18.825000762939     0.969639003277     0.000002282697     
18.930000305176     0.974919974804     0.000002308086     
19.034999847412     0.980036973953     0.000002336552     
19.139999389648     0.985318005085     0.000002366173     
19.245000839233     0.990598976612     0.000002395409     
19.350000381470     0.995881021023     0.000002426952     
19.454999923706     1.001162052155     0.000002460035     
19.559999465942     1.006443977356     0.000002493502     
19.665000915527     1.011559963226     0.000002528893     
19.770000457764     1.016842007637     0.000002565822     
19.875000000000     1.022122979164     0.000002603521     
19.979999542236     1.027405023575     0.000002643913     
20.084999084473     1.032685995102     0.000002686612     
20.190000534058     1.037966966629     0.000002730081     
20.295000076294     1.043249011040     0.000002775089     
20.399999618530     1.048529982567     0.000002823174     
20.504999160767     1.053812026978     0.000002871644     
20.610000610352     1.059092998505     0.000002921652     
20.715000152588     1.064210057259     0.000002974738     
20.819999694824     1.069491028786     0.000003029748     
20.924999237061     1.074772000313     0.000003085526     
21.030000686646     1.080054044724     0.000003143998     
21.135000228882     1.085335016251     0.000003204777     
21.239999771118     1.090616941452     0.000003265942     
21.344999313354     1.095898032188     0.000003330568     
21.450000762939     1.101014971733     0.000003395964     
21.555000305176     1.106461048126     0.000003462129     
21.659999847412     1.111577033997     0.000003531372     
21.764999389648     1.116858959198     0.000003603307     
21.870000839233     1.122140049934     0.000003675242     
21.975000381470     1.127421975136     0.000003749101     
22.079999923706     1.132537961006     0.000003825653     
22.184999465942     1.137984991074     0.000003902589     
22.290000915527     1.143100976944     0.000003980294     
22.395000457764     1.148381948471     0.000004060308     
22.500000000000     1.153663992882     0.000004141860     
22.604999542236     1.158944964409     0.000004224567     
22.709999084473     1.164227008820     0.000004309581     
22.815000534058     1.169507980347     0.000004395365     
22.920000076294     1.174790024757     0.000004481149     
23.024999618530     1.179906010628     0.000004570010     
23.129999160767     1.185186982155     0.000004658872     
23.235000610352     1.190469026566     0.000004748502     
23.340000152588     1.195749998093     0.000004840441     
23.444999694824     1.198060989380     0.000004804281     
23.549999237061     1.193274974823     0.000004491151     
23.655000686646     1.187993049622     0.000004198793     
23.760000228882     1.182711958885     0.000003931055     
23.864999771118     1.177595019341     0.000003682936     
23.969999313354     1.172314047813     0.000003452897     
24.075000762939     1.167032003403     0.000003240553     
24.180000305176     1.161751031876     0.000003041288     
24.284999847412     1.156469941139     0.000002855872     
24.389999389648     1.151188015938     0.000002683919     
24.495000839233     1.145907044411     0.000002522353     
24.600000381470     1.140789985657     0.000002371174     
24.704999923706     1.135509014130     0.000002231534     
24.809999465942     1.130226969719     0.000002099589     
24.915000915527     1.124945998192     0.000001975337     
25.020000457764     1.119665026665     0.000001860702     
25.125000000000     1.114382982254     0.000001753376     
25.229999542236     1.109102010727     0.000001651436     
25.334999084473     1.103819966316     0.000001557573     
25.440000534058     1.098703980446     0.000001470635     
25.545000076294     1.093422055244     0.000001387544     
25.649999618530     1.088140964508     0.000001310608     
25.754999160767     1.082859992981     0.000001239827     
25.860000610352     1.077743053436     0.000001172508     
25.965000152588     1.072296977043     0.000001109805     
26.069999694824     1.067015051842     0.000001052103     
26.174999237061     1.061898946762     0.000000998247     
26.280000686646     1.056452035904     0.000000947085     
26.385000228882     1.051336050034     0.000000900923     
26.489999771118     1.046054959297     0.000000857069     
26.594999313354     1.040773034096     0.000000815524     
26.700000762939     1.035491943359     0.000000778594     
26.805000305176     1.030210018158     0.000000742819     
26.909999847412     1.024929046631     0.000000708967     
27.014999389648     1.019811987877     0.000000679347     
27.120000839233     1.014531016350     0.000000651650     
27.225000381470     1.009250044823     0.000000623568     
27.329999923706     1.003968000412     0.000000598948     
27.434999465942     0.998687028885     0.000000576252     
27.540000915527     0.993404984474     0.000000553556     
27.645000457764     0.988124012947     0.000000532783     
27.750000000000     0.982842028141     0.000000514703     
27.854999542236     0.977560997009     0.000000496238     
27.959999084473     0.972445011139     0.000000478928     
28.065000534058     0.967163026333     0.000000463925     
28.170000076294     0.961881995201     0.000000448538     
28.274999618530     0.956600010395     0.000000433535     
28.379999160767     0.951318979263     0.000000420841     
28.485000610352     0.946036994457     0.000000407377     
28.590000152588     0.940756022930     0.000000395067     
28.694999694824     0.935639977455     0.000000384296     
28.799999237061     0.930357992649     0.000000373910     
28.905000686646     0.925077021122     0.000000362754     
29.010000228882     0.919794976711     0.000000353137     
29.114999771118     0.914514005184     0.000000343905     
29.219999313354     0.909232020378     0.000000333903     
29.329999923706     0.902961015701     0.000000324745     
29.434999465942     0.897844016552     0.000000317130     
29.540000915527     0.892562985420     0.000000309557     
29.645000457764     0.887281000614     0.000000300848     
29.750000000000     0.882000029087     0.000000293991     
29.854999542236     0.876718997955     0.000000287133     
29.959999084473     0.871437013149     0.000000279434     
30.065000534058     0.866155982018     0.000000272661     
30.170000076294     0.860873997211     0.000000266771     
30.274999618530     0.855593025684     0.000000259871     
30.379999160767     0.850310981274     0.000000253561     
30.485000610352     0.845030009747     0.000000248302     
30.590000152588     0.839913010597     0.000000242117     
30.694999694824     0.834631979465     0.000000235933     
30.799999237061     0.829351007938     0.000000231179     
30.905000686646     0.824069023132     0.000000225457     
31.010000228882     0.818787992001     0.000000219694     
31.114999771118     0.813506007195     0.000000214982     
31.219999313354     0.808390021324     0.000000210060     
31.325000762939     0.803107976913     0.000000204506     
31.430000305176     0.797827005386     0.000000200299     
31.534999847412     0.792545974255     0.000000195461     
31.639999389648     0.787263989449     0.000000190034     
31.745000839233     0.781983017921     0.000000185953     
31.850000381470     0.776700973511     0.000000181578     
31.954999923706     0.771420001984     0.000000176193     
32.060001373291     0.766303002834     0.000000171775     
32.165000915527     0.760856986046     0.000000168283     
32.270000457764     0.755741000175     0.000000163235     
32.375000000000     0.750459015369     0.000000158859     
32.479999542236     0.745177984238     0.000000155410     
32.584999084473     0.739895999432     0.000000150613     
32.689998626709     0.734615027905     0.000000146070     
32.794998168945     0.729332983494     0.000000142704     
32.900001525879     0.724052011967     0.000000138161     
33.005001068115     0.718770980835     0.000000133659     
33.110000610352     0.713653981686     0.000000130462     
33.215000152588     0.708208024502     0.000000126170     
33.319999694824     0.703091025352     0.000000121500     
33.424999237061     0.697809994221     0.000000118177     
33.529998779297     0.692528009415     0.000000114306     
33.634998321533     0.687246978283     0.000000109342     
33.740001678467     0.681966006756     0.000000105934     
33.845001220703     0.676684021950     0.000000102695     
33.950000762939     0.671402990818     0.000000097730     
34.055000305176     0.666121006012     0.000000093986     
34.159999847412     0.660839974880     0.000000090915     
34.264999389648     0.655722975731     0.000000086119     
34.369998931885     0.650442004204     0.000000082290     
34.474998474121     0.645160973072     0.000000078967     
34.580001831055     0.639878988266     0.000000074928     
34.685001373291     0.634598016739     0.000000070679     
34.790000915527     0.629481017590     0.000000067776     
34.895000457764     0.624035000801     0.000000063317     
35.000000000000     0.618753015995     0.000000059278     
35.104999542236     0.613636970520     0.000000056165     
35.209999084473     0.608355998993     0.000000052252     
35.314998626709     0.602909028530     0.000000047750     
