
Cycle 1
Physical Cycle 1
Step 1

Time (s),          Potential (V),         Current (A)
0.104999996722     0.002805999946     -0.000000317114     
0.209999993443     0.008086999878     -0.000000290369     
0.314999997616     0.013368999586     -0.000000271266     
0.419999986887     0.018650000915     -0.000000248342     
0.449999988079     0.028718000278     -0.000000198880     
0.555000007153     0.033998999745     -0.000000181954     
0.660000026226     0.039280999452     -0.000000166567     
0.764999985695     0.044562000781     -0.000000150795     
0.795000016689     0.054630000144     -0.000000123267     
0.899999976158     0.059746000916     -0.000000111740     
1.004999995232     0.065027996898     -0.000000099708     
1.110000014305     0.070308998227     -0.000000088054     
1.215000033379     0.075590997934     -0.000000077957     
1.320000052452     0.080871999264     -0.000000068281     
1.424999952316     0.086153000593     -0.000000057889     
1.529999971390     0.091269999743     -0.000000048423     
1.634999990463     0.096551001072     -0.000000039967     
1.740000009537     0.101833000779     -0.000000030333     
1.845000028610     0.107114002109     -0.000000020909     
1.950000047684     0.112396001816     -0.000000013168     
2.055000066757     0.117677003145     -0.000000003702     
2.105000019073     0.126589000225     0.000000011446     
2.210000038147     0.131870999932     0.000000021121     
2.315000057220     0.136987000704     0.000000029560     
2.420000076294     0.142269000411     0.000000039224     
2.525000095367     0.147385001183     0.000000049761     
2.630000114441     0.152667000890     0.000000059059     
2.734999895096     0.157783001661     0.000000069223     
2.839999914169     0.163064002991     0.000000080715     
2.914999961853     0.171151995659     0.000000098824     
3.019999980927     0.176432996988     0.000000109679     
3.125000000000     0.181713998318     0.000000120533     
3.230000019073     0.186995998025     0.000000133154     
3.335000038147     0.192276999354     0.000000145944     
3.440000057220     0.197558999062     0.000000156966     
3.545000076294     0.202840000391     0.000000169924     
3.650000095367     0.207956999540     0.000000183008     
3.755000114441     0.213238000870     0.000000195124     
3.859999895096     0.218519002199     0.000000208377     
3.964999914169     0.223801001906     0.000000222218     
4.070000171661     0.229082003236     0.000000235260     
4.175000190735     0.234364002943     0.000000248807     
4.280000209808     0.239645004272     0.000000263574     
4.385000228882     0.244927003980     0.000000277373     
4.489999771118     0.250043004751     0.000000291298     
4.594999790192     0.255324006081     0.000000306822     
4.699999809265     0.260605990887     0.000000321589     
4.804999828339     0.265886992216     0.000000336188     
4.909999847412     0.271169006824     0.000000352722     
5.014999866486     0.276450008154     0.000000368540     
5.119999885559     0.281731992960     0.000000383686     
5.224999904633     0.286848008633     0.000000400977     
5.329999923706     0.292129009962     0.000000417763     
5.434999942780     0.297410994768     0.000000433876     
5.539999961853     0.302691996098     0.000000451083     
5.644999980927     0.307808995247     0.000000469174     
5.750000000000     0.313255012035     0.000000486044     
5.855000019073     0.318372011185     0.000000504092     
5.960000038147     0.323653012514     0.000000523066     
6.065000057220     0.328934013844     0.000000540484     
6.170000076294     0.334215998650     0.000000558658     
6.275000095367     0.339332014322     0.000000577464     
6.380000114441     0.344613999128     0.000000595554     
6.485000133514     0.349895000458     0.000000613981     
6.590000152588     0.355176985264     0.000000633376     
6.695000171661     0.360293000937     0.000000651593     
6.800000190735     0.365738987923     0.000000668800     
6.905000209808     0.370855987072     0.000000687605     
7.010000228882     0.376136988401     0.000000705738     
7.114999771118     0.381419003010     0.000000722440     
7.219999790192     0.386700004339     0.000000740614     
7.324999809265     0.391981989145     0.000000758663     
7.429999828339     0.397262990475     0.000000775154     
7.534999847412     0.402545005083     0.000000792193     
7.639999866486     0.407660990953     0.000000809863     
7.744999885559     0.412941992283     0.000000825976     
7.849999904633     0.418224006891     0.000000842299     
7.954999923706     0.423505008221     0.000000859633     
8.060000419617     0.428622007370     0.000000875493     
8.164999961853     0.434067994356     0.000000891901     
8.270000457764     0.439184010029     0.000000908771     
8.375000000000     0.444465994835     0.000000925221     
8.479999542236     0.449746996164     0.000000940703     
8.585000038147     0.454863995314     0.000000957784     
8.689999580383     0.460144996643     0.000000974276     
8.795000076294     0.465427011251     0.000000989758     
8.899999618530     0.470708012581     0.000001006586     
9.005000114441     0.475989013910     0.000001023583     
9.039999961853     0.486387014389     0.000001060566     
9.145000457764     0.491668999195     0.000001075568     
9.250000000000     0.496950000525     0.000001092109     
9.354999542236     0.502067029476     0.000001109805     
9.460000038147     0.507512986660     0.000001126346     
9.564999580383     0.512628972530     0.000001142887     
9.670000076294     0.517911016941     0.000001160583     
9.774999618530     0.523191988468     0.000001178278     
9.880000114441     0.528473973274     0.000001195589     
9.984999656677     0.533755004406     0.000001214053     
10.090000152588     0.539036989212     0.000001232518     
10.194999694824     0.544318020344     0.000001249829     
10.300000190735     0.549600005150     0.000001268678     
10.404999732971     0.554715991020     0.000001288297     
10.510000228882     0.559997022152     0.000001307146     
10.614999771118     0.565443992615     0.000001326380     
10.720000267029     0.570725023746     0.000001346768     
10.824999809265     0.575842022896     0.000001366387     
10.930000305176     0.581122994423     0.000001386390     
11.034999847412     0.586404979229     0.000001407932     
11.140000343323     0.591686010361     0.000001427551     
11.244999885559     0.596966981888     0.000001447170     
11.350000381470     0.602083981037     0.000001468327     
11.454999923706     0.607365012169     0.000001487946     
11.560000419617     0.612646996975     0.000001506795     
11.664999961853     0.618093013763     0.000001526414     
11.770000457764     0.623210012913     0.000001545648     
11.875000000000     0.628490984440     0.000001562574     
11.979999542236     0.633772015572     0.000001580654     
12.085000038147     0.639054000378     0.000001597580     
12.189999580383     0.644169986248     0.000001613352     
12.295000076294     0.649617016315     0.000001629509     
12.399999618530     0.654733002186     0.000001645281     
12.505000114441     0.660014986992     0.000001659899     
12.609999656677     0.665296018124     0.000001674901     
12.715000152588     0.670576989651     0.000001689904     
12.819999694824     0.675858974457     0.000001704137     
12.925000190735     0.681140005589     0.000001717601     
13.029999732971     0.686421990395     0.000001732603     
13.135000228882     0.691703021526     0.000001747221     
13.239999771118     0.696985006332     0.000001759916     
13.345000267029     0.702265977859     0.000001774918     
13.449999809265     0.707547008991     0.000001789151     
13.555000305176     0.712828993797     0.000001802615     
13.659999847412     0.718110024929     0.000001816848     
13.765000343323     0.723227024078     0.000001831851     
13.869999885559     0.728507995605     0.000001846084     
13.975000381470     0.733789980412     0.000001861471     
14.079999923706     0.739071011543     0.000001877243     
14.185000419617     0.744351983070     0.000001892246     
14.289999961853     0.749634027481     0.000001908402     
14.395000457764     0.754914999008     0.000001924944     
14.500000000000     0.760196983814     0.000001940716     
14.604999542236     0.765313029289     0.000001957257     
14.710000038147     0.770595014095     0.000001974952     
14.814999580383     0.775875985622     0.000001993032     
14.920000076294     0.781157970428     0.000002009958     
15.024999618530     0.786439001560     0.000002029577     
15.130000114441     0.791719973087     0.000002048426     
15.234999656677     0.797002017498     0.000002066506     
15.340000152588     0.802282989025     0.000002086125     
15.444999694824     0.807564973831     0.000002106128     
15.550000190735     0.812681019306     0.000002125747     
15.654999732971     0.817963004112     0.000002146135     
15.760000228882     0.823409020901     0.000002166908     
15.864999771118     0.828525006771     0.000002187681     
15.970000267029     0.833806991577     0.000002209223     
16.075000762939     0.839088022709     0.000002231534     
16.180000305176     0.844370007515     0.000002252692     
16.284999847412     0.849650979042     0.000002274234     
16.389999389648     0.854933023453     0.000002298084     
16.495000839233     0.860213994980     0.000002320780     
16.600000381470     0.865495026112     0.000002343477     
16.704999923706     0.870612025261     0.000002368096     
16.809999465942     0.875892996788     0.000002391562     
16.915000915527     0.881174981594     0.000002415412     
17.020000457764     0.886456012726     0.000002440416     
17.125000000000     0.891737997532     0.000002465805     
17.229999542236     0.897019028664     0.000002490040     
17.334999084473     0.902300000191     0.000002516968     
17.440000534058     0.907416999340     0.000002542741     
17.545000076294     0.912697970867     0.000002569284     
17.649999618530     0.917980015278     0.000002596597     
17.754999160767     0.923260986805     0.000002625833     
17.860000610352     0.928542971611     0.000002652760     
17.965000152588     0.933824002743     0.000002681611     
18.069999694824     0.939104974270     0.000002712386     
18.174999237061     0.944387018681     0.000002742391     
18.280000686646     0.949667990208     0.000002773165     
18.385000228882     0.954784989357     0.000002805863     
18.489999771118     0.960066020489     0.000002839330     
18.594999313354     0.965348005295     0.000002872028     
18.700000762939     0.970628976822     0.000002907034     
18.805000305176     0.975910007954     0.000002942810     
18.909999847412     0.981191992760     0.000002978585     
19.014999389648     0.986473023891     0.000003017438     
19.120000839233     0.991755008698     0.000003056291     
19.225000381470     0.997035980225     0.000003096682     
19.329999923706     1.002318024635     0.000003138612     
19.434999465942     1.007598996162     0.000003182081     
19.540000915527     1.012716054916     0.000003225550     
19.645000457764     1.017997026443     0.000003270943     
19.750000000000     1.023277997971     0.000003319028     
19.854999542236     1.028560042381     0.000003367497     
19.959999084473     1.033841013908     0.000003417891     
20.065000534058     1.038957953453     0.000003471746     
20.170000076294     1.044239044189     0.000003525601     
20.274999618530     1.049685955048     0.000003580995     
20.379999160767     1.054967045784     0.000003639467     
20.485000610352     1.060083031654     0.000003699477     
20.590000152588     1.065364956856     0.000003759487     
20.694999694824     1.070646047592     0.000003824114     
20.799999237061     1.075927972794     0.000003889510     
20.905000686646     1.081208944321     0.000003956444     
21.010000228882     1.086490988731     0.000004025302     
21.114999771118     1.091606974602     0.000004097237     
21.219999313354     1.096887946129     0.000004169173     
21.325000762939     1.102169990540     0.000004243801     
21.430000305176     1.107450962067     0.000004320352     
21.534999847412     1.112733006477     0.000004398443     
21.639999389648     1.118013978004     0.000004478841     
21.745000839233     1.123296022415     0.000004562317     
21.850000381470     1.128576993942     0.000004645408     
21.954999923706     1.133857965469     0.000004731961     
22.059999465942     1.138975024223     0.000004820053     
22.165000915527     1.144255995750     0.000004909684     
22.270000457764     1.149538040161     0.000004999314     
22.375000000000     1.154819011688     0.000005093946     
22.479999542236     1.160101056099     0.000005190116     
22.584999084473     1.165217041969     0.000005285902     
22.690000534058     1.170662999153     0.000005385534     
22.795000076294     1.175780057907     0.000005487090     
22.899999618530     1.181061029434     0.000005589030     
23.004999160767     1.186342954636     0.000005692894     
23.110000610352     1.191624045372     0.000005800605     
23.215000152588     1.196905970573     0.000005908700     
23.319999694824     1.197566032410     0.000005753674     
23.424999237061     1.192283987999     0.000005342834     
23.530000686646     1.187168002129     0.000004975464     
23.635000228882     1.181887030602     0.000004643869     
23.739999771118     1.176604986191     0.000004342664     
23.844999313354     1.171489000320     0.000004065309     
23.950000762939     1.166041970253     0.000003810650     
24.055000305176     1.160925984383     0.000003577918     
24.159999847412     1.155478954315     0.000003362112     
24.264999389648     1.150362968445     0.000003162078     
24.370000839233     1.145081996918     0.000002978585     
24.475000381470     1.139799952507     0.000002808171     
24.579999923706     1.134683966637     0.000002648529     
24.684999465942     1.129237055779     0.000002501196     
24.790000915527     1.124120950699     0.000002364249     
24.895000457764     1.118839025497     0.000002236151     
25.000000000000     1.113558053970     0.000002117284     
25.104999542236     1.108276963234     0.000002007265     
25.209999084473     1.102995038033     0.000001903017     
25.315000534058     1.097879052162     0.000001806847     
25.420000076294     1.092597007751     0.000001718370     
25.524999618530     1.087316036224     0.000001633356     
25.629999160767     1.082033991814     0.000001554496     
25.735000610352     1.076753020287     0.000001482561     
25.840000152588     1.071470975876     0.000001414472     
25.944999694824     1.066190004349     0.000001349076     
26.049999237061     1.061074018478     0.000001290220     
26.155000686646     1.055626988411     0.000001235211     
26.260000228882     1.050511002541     0.000001182125     
26.364999771118     1.045228958130     0.000001133655     
26.469999313354     1.039947986603     0.000001087878     
26.575000762939     1.034665942192     0.000001044794     
26.680000305176     1.029384970665     0.000001004402     
26.784999847412     1.024268984795     0.000000967088     
26.889999389648     1.018821954727     0.000000930928     
26.995000839233     1.013705968857     0.000000897845     
27.100000381470     1.008424043655     0.000000867071     
27.204999923706     1.003142952919     0.000000836296     
27.309999465942     0.997861027718     0.000000808599     
27.415000915527     0.992579996586     0.000000783211     
27.520000457764     0.987299025059     0.000000757822     
27.625000000000     0.982016980648     0.000000733587     
27.729999542236     0.976736009121     0.000000712045     
27.834999084473     0.971619009972     0.000000691272     
27.940000534058     0.966337978840     0.000000670114     
28.045000076294     0.961055994034     0.000000651265     
28.149999618530     0.955775022507     0.000000633570     
28.254999160767     0.950493991375     0.000000615490     
28.360000610352     0.945212006569     0.000000599333     
28.465000152588     0.939930975437     0.000000583561     
28.569999694824     0.934648990631     0.000000567789     
28.674999237061     0.929368019104     0.000000553941     
28.780000686646     0.924251019955     0.000000540092     
28.885000228882     0.918969988823     0.000000525859     
28.989999771118     0.913689017296     0.000000513164     
29.094999313354     0.908241987228     0.000000501624     
29.200000762939     0.903126001358     0.000000488930     
29.305000305176     0.897844016552     0.000000477004     
29.409999847412     0.892562985420     0.000000466618     
29.514999389648     0.887281000614     0.000000455847     
29.620000839233     0.882165014744     0.000000444691     
29.725000381470     0.876883983612     0.000000435074     
29.829999923706     0.871437013149     0.000000425842     
29.934999465942     0.866321027279     0.000000415071     
30.040000915527     0.861038982868     0.000000406223     
30.145000457764     0.855758011341     0.000000397760     
30.250000000000     0.850476026535     0.000000388143     
30.354999542236     0.845194995403     0.000000380065     
30.459999084473     0.839913010597     0.000000372371     
30.565000534058     0.834631979465     0.000000363139     
30.670000076294     0.829351007938     0.000000355445     
30.774999618530     0.824069023132     0.000000348136     
30.819999694824     0.814661979675     0.000000334168     
30.924999237061     0.809379994869     0.000000327647     
31.030000686646     0.804264008999     0.000000320790     
31.135000228882     0.798816978931     0.000000313427     
31.239999771118     0.793700993061     0.000000306065     
31.344999313354     0.788419008255     0.000000300343     
31.450000762939     0.783137977123     0.000000292981     
31.555000305176     0.777857005596     0.000000285619     
31.659999847412     0.772575020790     0.000000280023     
31.764999389648     0.767293989658     0.000000274049     
31.870000839233     0.762012004852     0.000000266561     
31.975000381470     0.756896018982     0.000000261007     
32.080001831055     0.751448988914     0.000000255286     
32.185001373291     0.746333003044     0.000000247923     
32.290000915527     0.741051971912     0.000000242328     
32.395000457764     0.735769987106     0.000000236480     
32.500000000000     0.730489015579     0.000000229707     
32.604999542236     0.725206971169     0.000000224111     
32.709999084473     0.719925999641     0.000000218726     
32.814998626709     0.714644014835     0.000000212289     
32.919998168945     0.709362983704     0.000000206147     
33.025001525879     0.704246997833     0.000000201183     
33.130001068115     0.698965013027     0.000000194199     
33.235000610352     0.693683981895     0.000000188435     
33.340000152588     0.688401997089     0.000000183597     
33.444999694824     0.683121025562     0.000000177455     
33.549999237061     0.677838981152     0.000000171102     
33.654998779297     0.672558009624     0.000000166600     
33.759998321533     0.667276978493     0.000000161089     
33.865001678467     0.661994993687     0.000000154442     
33.970001220703     0.656714022160     0.000000149478     
34.075000762939     0.651597023010     0.000000144092     
34.180000305176     0.646151006222     0.000000138034     
34.284999847412     0.641034007072     0.000000132775     
34.389999389648     0.635752975941     0.000000127853     
34.494998931885     0.630472004414     0.000000121458     
34.599998474121     0.625190019608     0.000000116031     
34.705001831055     0.619908988476     0.000000111109     
34.810001373291     0.614627003670     0.000000104756     
34.915000915527     0.609511017799     0.000000099161     
35.020000457764     0.604228973389     0.000000094533     
35.125000000000     0.598948001862     0.000000088096     
