
Cycle 1
Physical Cycle 1
Step 1

Time (s),          Potential (V),         Current (A)
0.104999996722     0.001818999997     -0.000000952980     
0.209999993443     0.007110000122     -0.000000895801     
0.314999997616     0.012400999665     -0.000000846246     
0.419999986887     0.017692999914     -0.000000792879     
0.449999988079     0.027778999880     -0.000000779705     
0.555000007153     0.032905001193     -0.000000735940     
0.660000026226     0.038196001202     -0.000000696398     
0.764999985695     0.043487001210     -0.000000658008     
0.870000004768     0.048778001219     -0.000000620770     
0.975000023842     0.054069999605     -0.000000586986     
1.080000042915     0.059360999614     -0.000000553971     
1.184999942780     0.064652003348     -0.000000522491     
1.289999961853     0.069778002799     -0.000000494082     
1.394999980927     0.075069002807     -0.000000466825     
1.500000000000     0.080360002816     -0.000000439568     
1.605000019073     0.085652001202     -0.000000414230     
1.710000038147     0.090943001211     -0.000000391196     
1.815000057220     0.096234001219     -0.000000368546     
1.919999957085     0.101360000670     -0.000000346664     
2.025000095367     0.106651000679     -0.000000327085     
2.130000114441     0.111942000687     -0.000000307122     
2.160000085831     0.122028999031     -0.000000280211     
2.265000104904     0.127320006490     -0.000000263173     
2.369999885559     0.132611006498     -0.000000248065     
2.474999904633     0.137902006507     -0.000000232999     
2.579999923706     0.143194004893     -0.000000217303     
2.684999942780     0.148319005966     -0.000000203034     
2.789999961853     0.153611004353     -0.000000191116     
2.894999980927     0.158902004361     -0.000000178400     
3.000000000000     0.164193004370     -0.000000166146     
3.105000019073     0.169319003820     -0.000000154857     
3.210000038147     0.174610003829     -0.000000143778     
3.315000057220     0.179901003838     -0.000000132740     
3.420000076294     0.185193002224     -0.000000123927     
3.525000095367     0.190484002233     -0.000000114988     
3.630000114441     0.195775002241     -0.000000104958     
3.734999895096     0.200901001692     -0.000000095516     
3.839999914169     0.206192001700     -0.000000087920     
3.944999933243     0.211483001709     -0.000000080114     
4.050000190735     0.216775000095     -0.000000072350     
4.155000209808     0.222066000104     -0.000000065468     
4.260000228882     0.227357000113     -0.000000058124     
4.364999771118     0.232482999563     -0.000000049940     
4.469999790192     0.237773999572     -0.000000043226     
4.574999809265     0.243064999580     -0.000000037560     
4.679999828339     0.248355999589     -0.000000030594     
4.784999847412     0.253482013941     -0.000000022536     
4.889999866486     0.258938997984     -0.000000016241     
4.994999885559     0.264064997435     -0.000000009065     
5.045000076294     0.273158997297     0.000000002033     
5.150000095367     0.278284996748     0.000000010238     
5.255000114441     0.283576011658     0.000000017307     
5.360000133514     0.288702011108     0.000000025035     
5.465000152588     0.293992996216     0.000000034313     
5.570000171661     0.299118995667     0.000000043399     
5.675000190735     0.304410010576     0.000000051703     
5.780000209808     0.309536010027     0.000000061694     
5.885000228882     0.314826995134     0.000000072745     
5.920000076294     0.325078994036     0.000000097992     
6.025000095367     0.330204993486     0.000000109365     
6.130000114441     0.335496008396     0.000000122836     
6.235000133514     0.340622007847     0.000000139119     
6.340000152588     0.345912992954     0.000000156074     
6.445000171661     0.351370006800     0.000000173238     
6.550000190735     0.356496006250     0.000000192165     
6.655000209808     0.361786991358     0.000000213022     
6.760000228882     0.367078006268     0.000000234467     
6.864999771118     0.372368991375     0.000000257969     
6.969999790192     0.377494990826     0.000000283694     
7.074999809265     0.382786005735     0.000000309210     
7.179999828339     0.388078004122     0.000000335061     
7.284999847412     0.393202990294     0.000000362591     
7.389999866486     0.398494988680     0.000000391381     
7.494999885559     0.403786003590     0.000000419834     
7.599999904633     0.409076988697     0.000000448413     
7.704999923706     0.414202988148     0.000000476908     
7.809999942780     0.419494003057     0.000000504480     
7.914999961853     0.424620002508     0.000000532262     
8.020000457764     0.430076986551     0.000000560842     
8.125000000000     0.435202986002     0.000000588036     
8.229999542236     0.440494000912     0.000000612880     
8.335000038147     0.445784986019     0.000000638228     
8.439999580383     0.451076000929     0.000000662653     
8.545000076294     0.456366986036     0.000000685189     
8.649999618530     0.461492985487     0.000000707935     
8.755000114441     0.466784000397     0.000000730387     
8.859999656677     0.472075998783     0.000000749817     
8.965000152588     0.477367013693     0.000000768576     
9.069999694824     0.482493013144     0.000000787461     
9.175000190735     0.487783998251     0.000000806514     
9.279999732971     0.493075013161     0.000000822923     
9.385000228882     0.498365998268     0.000000838954     
9.489999771118     0.503491997719     0.000000854818     
9.595000267029     0.508782982826     0.000000869674     
9.699999809265     0.514074981213     0.000000884488     
9.805000305176     0.519366025925     0.000000900058     
9.909999847412     0.524657011032     0.000000913991     
10.015000343323     0.529783010483     0.000000926413     
10.119999885559     0.535073995590     0.000000940094     
10.225000381470     0.540364980698     0.000000953145     
10.329999923706     0.545490980148     0.000000965568     
10.435000419617     0.550782978535     0.000000978451     
10.539999961853     0.556074023247     0.000000991335     
10.645000457764     0.561365008354     0.000001002246     
10.750000000000     0.566655993462     0.000001013409     
10.854999542236     0.571946978569     0.000001026125     
10.970000267029     0.583522021770     0.000001066864     
11.074999809265     0.588813006878     0.000001076077     
11.180000305176     0.594103991985     0.000001086443     
11.284999847412     0.599395990372     0.000001097576     
11.390000343323     0.604520976543     0.000001109093     
11.494999885559     0.609812974930     0.000001119074     
11.600000381470     0.615104019642     0.000001129440     
11.704999923706     0.620395004749     0.000001140573     
11.810000419617     0.625521004200     0.000001150170     
11.914999961853     0.630811989307     0.000001160152     
12.020000457764     0.636102974415     0.000001172437     
12.125000000000     0.641394972801     0.000001182802     
12.229999542236     0.646686017513     0.000001192400     
12.335000038147     0.651977002621     0.000001203149     
12.439999580383     0.657103002071     0.000001214282     
12.545000076294     0.662393987179     0.000001224647     
12.649999618530     0.667850971222     0.000001235781     
12.755000114441     0.672976970673     0.000001246530     
12.859999656677     0.678433001041     0.000001256895     
12.965000152588     0.683559000492     0.000001266877     
13.069999694824     0.688849985600     0.000001278778     
13.175000190735     0.694140970707     0.000001289527     
13.279999732971     0.699433028698     0.000001299892     
13.385000228882     0.704724013805     0.000001311025     
13.489999771118     0.710014998913     0.000001321775     
13.595000267029     0.715140998363     0.000001332524     
13.699999809265     0.720431983471     0.000001344041     
13.805000305176     0.725723028183     0.000001356326     
13.909999847412     0.731015026569     0.000001367075     
14.015000343323     0.736306011677     0.000001377440     
14.119999885559     0.741596996784     0.000001390109     
14.225000381470     0.746722996235     0.000001402778     
14.329999923706     0.752013981342     0.000001414295     
14.435000419617     0.757305026054     0.000001426580     
14.539999961853     0.762597024441     0.000001439249     
14.645000457764     0.767888009548     0.000001451150     
14.750000000000     0.773178994656     0.000001463434     
14.854999542236     0.778304994106     0.000001477639     
14.960000038147     0.783595979214     0.000001491459     
15.064999580383     0.788887023926     0.000001504128     
15.170000076294     0.794178009033     0.000001517181     
15.274999618530     0.799470007420     0.000001531385     
15.380000114441     0.804596006870     0.000001544822     
15.484999656677     0.810051977634     0.000001559410     
15.590000152588     0.815177977085     0.000001574382     
15.694999694824     0.820469021797     0.000001587435     
15.800000190735     0.825760006905     0.000001601639     
15.904999732971     0.830886006355     0.000001617379     
16.010000228882     0.836342990398     0.000001633119     
16.114999771118     0.841633975506     0.000001647323     
16.219999313354     0.846759974957     0.000001663063     
16.325000762939     0.852051019669     0.000001679187     
16.430000305176     0.857342004776     0.000001694160     
16.534999847412     0.862634003162     0.000001710667     
16.639999389648     0.867924988270     0.000001728711     
16.745000839233     0.873215973377     0.000001745602     
16.850000381470     0.878341972828     0.000001761342     
16.954999923706     0.883633017540     0.000001779002     
17.059999465942     0.888924002647     0.000001797429     
17.165000915527     0.894216001034     0.000001815473     
17.270000457764     0.899506986141     0.000001834668     
17.375000000000     0.904797971249     0.000001854247     
17.479999542236     0.909923970699     0.000001872290     
17.584999084473     0.915380001068     0.000001890717     
17.690000534058     0.920506000519     0.000001911448     
17.795000076294     0.925796985626     0.000001932179     
17.899999618530     0.931088984013     0.000001951758     
18.004999160767     0.936380028725     0.000001972105     
18.110000610352     0.941506028175     0.000001992451     
18.215000152588     0.946797013283     0.000002012798     
18.319999694824     0.952087998390     0.000002034297     
18.424999237061     0.957378983498     0.000002056947     
18.530000686646     0.962670981884     0.000002078062     
18.635000228882     0.967796027660     0.000002098408     
18.739999771118     0.973088026047     0.000002120675     
18.844999313354     0.978379011154     0.000002144477     
18.950000762939     0.983669996262     0.000002166359     
19.055000305176     0.988960981369     0.000002188625     
19.159999847412     0.994252979755     0.000002212043     
19.264999389648     0.999544024467     0.000002234310     
19.370000839233     1.004670023918     0.000002256576     
19.475000381470     1.009961009026     0.000002280762     
19.579999923706     1.015251994133     0.000002305332     
19.684999465942     1.020542979240     0.000002328366     
19.790000915527     1.025835037231     0.000002351784     
19.895000457764     1.030959963799     0.000002375969     
20.000000000000     1.036252021790     0.000002399771     
20.104999542236     1.041543006897     0.000002424725     
20.209999084473     1.046833992004     0.000002450446     
20.315000534058     1.052124977112     0.000002475400     
20.420000076294     1.057415962219     0.000002499586     
20.524999618530     1.062708020210     0.000002526843     
20.629999160767     1.067999005318     0.000002553716     
20.735000610352     1.073289990425     0.000002580589     
20.840000152588     1.078580975533     0.000002608230     
20.944999694824     1.083706974983     0.000002636639     
21.049999237061     1.088997960091     0.000002663896     
21.155000686646     1.094290018082     0.000002692689     
21.260000228882     1.099414944649     0.000002724552     
21.364999771118     1.104707002640     0.000002757184     
21.469999313354     1.109997987747     0.000002787896     
21.575000762939     1.115288972855     0.000002821296     
21.680000305176     1.120579957962     0.000002855847     
21.784999847412     1.125705957413     0.000002892318     
21.889999389648     1.130996942520     0.000002929556     
21.995000839233     1.136289000511     0.000002969098     
22.100000381470     1.141579985619     0.000003008256     
22.204999923706     1.146870970726     0.000003049717     
22.309999465942     1.152161955833     0.000003093482     
22.415000915527     1.157454013824     0.000003139934     
22.520000457764     1.162744998932     0.000003187154     
22.625000000000     1.167870998383     0.000003237829     
22.729999542236     1.173161983490     0.000003288505     
22.834999084473     1.178452968597     0.000003341099     
22.940000534058     1.183743953705     0.000003397917     
23.045000076294     1.189035058022     0.000003459341     
23.149999618530     1.194161057472     0.000003521149     
23.254999160767     1.197798967361     0.000003510016     
23.360000610352     1.193665027618     0.000003240133     
23.465000152588     1.188374042511     0.000002985990     
23.569999694824     1.183248043060     0.000002761023     
23.674999237061     1.177957057953     0.000002561778     
23.780000686646     1.172665953636     0.000002382880     
23.885000228882     1.167374968529     0.000002220489     
23.989999771118     1.162083029747     0.000002073839     
24.094999313354     1.156957030296     0.000001942544     
24.200000762939     1.151666045189     0.000001823534     
24.305000305176     1.146374940872     0.000001713355     
24.409999847412     1.141083955765     0.000001613924     
24.514999389648     1.135792970657     0.000001522555     
24.620000839233     1.130666971207     0.000001438481     
24.725000381470     1.125375986099     0.000001362084     
24.829999923706     1.120084047318     0.000001292982     
24.934999465942     1.114792943001     0.000001228486     
25.040000915527     1.109501957893     0.000001167062     
25.145000457764     1.104375958443     0.000001112164     
25.250000000000     1.099084973335     0.000001061489     
25.354999542236     1.093793988228     0.000001014269     
25.459999084473     1.088667988777     0.000000970888     
25.565000534058     1.083210945129     0.000000930195     
25.670000076294     1.077919960022     0.000000890653     
25.774999618530     1.072793960571     0.000000854950     
25.879999160767     1.067502975464     0.000000823470     
25.985000610352     1.062211990356     0.000000792758     
26.090000152588     1.056920051575     0.000000763197     
26.194999694824     1.051628947258     0.000000735556     
26.299999237061     1.046502947807     0.000000709835     
26.405000686646     1.041211962700     0.000000685265     
26.510000228882     1.035920977592     0.000000662615     
26.614999771118     1.030629992485     0.000000642652     
26.719999313354     1.025338053703     0.000000621537     
26.825000762939     1.020046949387     0.000000601191     
26.930000305176     1.014755964279     0.000000583147     
27.034999847412     1.009464979172     0.000000566255     
27.139999389648     1.004338979721     0.000000549748     
27.245000839233     0.999047994614     0.000000534008     
27.350000381470     0.993757009506     0.000000519036     
27.454999923706     0.988465011120     0.000000503679     
27.559999465942     0.983339011669     0.000000489091     
27.665000915527     0.978048026562     0.000000477574     
27.770000457764     0.972591996193     0.000000464905     
27.875000000000     0.967465996742     0.000000451853     
27.979999542236     0.962175011635     0.000000439952     
28.084999084473     0.956883013248     0.000000428819     
28.190000534058     0.951592028141     0.000000417301     
28.295000076294     0.946300983429     0.000000406936     
28.399999618530     0.941174983978     0.000000398106     
28.504999160767     0.935883998871     0.000000386973     
28.610000610352     0.930593013763     0.000000375840     
28.715000152588     0.925301015377     0.000000367778     
28.819999694824     0.920009970665     0.000000359332     
28.924999237061     0.914883971214     0.000000350119     
29.030000686646     0.909592986107     0.000000341673     
29.110000610352     0.901821970940     0.000000319995     
29.215000152588     0.896529972553     0.000000311308     
29.319999694824     0.891238987446     0.000000304132     
29.424999237061     0.886112987995     0.000000297249     
29.530000686646     0.880822002888     0.000000289444     
29.635000228882     0.875531017780     0.000000282099     
29.739999771118     0.870239973068     0.000000274545     
29.844999313354     0.864947974682     0.000000266740     
29.950000762939     0.859656989574     0.000000259689     
30.055000305176     0.854366004467     0.000000254905     
30.159999847412     0.849240005016     0.000000247393     
30.264999389648     0.843949019909     0.000000239755     
30.370000839233     0.838657975197     0.000000233586     
30.475000381470     0.833366990089     0.000000228550     
30.579999923706     0.828074991703     0.000000221919     
30.684999465942     0.822948992252     0.000000216841     
30.790000915527     0.817658007145     0.000000211554     
30.895000457764     0.812367022038     0.000000205133     
31.000000000000     0.807075977325     0.000000199048     
31.104999542236     0.801784992218     0.000000195103     
31.209999084473     0.796658992767     0.000000191200     
31.315000534058     0.791366994381     0.000000185912     
31.420000076294     0.786076009274     0.000000181631     
31.524999618530     0.780785024166     0.000000177015     
31.629999160767     0.775493979454     0.000000172189     
31.735000610352     0.770202994347     0.000000168496     
31.840000152588     0.765076994896     0.000000165726     
31.944999694824     0.759786009789     0.000000161697     
32.049999237061     0.754494011402     0.000000156871     
32.154998779297     0.749203026295     0.000000153933     
32.259998321533     0.744077026844     0.000000150870     
32.365001678467     0.738785982132     0.000000147597     
32.470001220703     0.733494997025     0.000000145246     
32.575000762939     0.728204011917     0.000000142770     
32.680000305176     0.722912013531     0.000000139371     
32.784999847412     0.717621028423     0.000000137567     
32.889999389648     0.712329983711     0.000000137986     
32.994998931885     0.707038998604     0.000000138448     
33.099998474121     0.701912999153     0.000000137567     
33.205001831055     0.696622014046     0.000000139035     
33.310001373291     0.691330015659     0.000000140630     
33.415000915527     0.686038970947     0.000000142812     
33.520000457764     0.680747985840     0.000000146421     
33.625000000000     0.675457000732     0.000000150366     
33.729999542236     0.670166015625     0.000000152633     
33.834999084473     0.664874017239     0.000000154479     
33.939998626709     0.659582972527     0.000000157501     
34.044998168945     0.654291987419     0.000000159809     
34.150001525879     0.649001002312     0.000000160187     
34.255001068115     0.643875002861     0.000000160061     
34.360000610352     0.638584017754     0.000000158550     
34.465000152588     0.633292019367     0.000000155528     
34.569999694824     0.628000974655     0.000000152339     
34.674999237061     0.622709989548     0.000000149863     
34.779998779297     0.617419004440     0.000000145498     
34.884998321533     0.612293004990     0.000000138742     
34.990001678467     0.607002019882     0.000000133370     
35.095001220703     0.601710021496     0.000000127746     
35.200000762939     0.596418976784     0.000000121074     
