
Cycle 1
Physical Cycle 1
Step 1

Time (s),          Potential (V),         Current (A)
0.104999996722     0.002318999963     -0.000000152852     
0.209999993443     0.007619999815     -0.000000141388     
0.314999997616     0.012920999900     -0.000000133746     
0.419999986887     0.018222000450     -0.000000122282     
0.449999988079     0.028161000460     -0.000000104847     
0.555000007153     0.033461999148     -0.000000097523     
0.660000026226     0.038763001561     -0.000000090585     
0.764999985695     0.043898999691     -0.000000082876     
0.795000016689     0.054003998637     -0.000000070246     
0.899999976158     0.059305001050     -0.000000064280     
1.004999995232     0.064439997077     -0.000000058986     
1.110000014305     0.069741003215     -0.000000052894     
1.215000033379     0.075042001903     -0.000000048021     
1.320000052452     0.080343000591     -0.000000043820     
1.424999952316     0.085478000343     -0.000000038568     
1.529999971390     0.090778999031     -0.000000033022     
1.634999990463     0.096079997718     -0.000000029199     
1.740000009537     0.101380996406     -0.000000025418     
1.845000028610     0.106682002544     -0.000000020628     
1.950000047684     0.111983001232     -0.000000016553     
2.049999952316     0.118444003165     -0.000000011608     
2.154999971390     0.123745001853     -0.000000006765     
2.259999990463     0.128879994154     -0.000000003079     
2.365000009537     0.134180992842     0.000000000796     
2.470000028610     0.139482006431     0.000000005650     
2.575000047684     0.144617006183     0.000000009765     
2.680000066757     0.149918004870     0.000000013284     
2.785000085831     0.155219003558     0.000000018536     
2.890000104904     0.160354003310     0.000000023784     
2.994999885559     0.165655001998     0.000000027739     
3.099999904633     0.170791000128     0.000000032343     
3.204999923706     0.176091998816     0.000000038236     
3.309999942780     0.181392997503     0.000000043211     
3.414999961853     0.186527997255     0.000000048406     
3.519999980927     0.191828995943     0.000000054906     
3.625000000000     0.196963995695     0.000000061238     
3.730000019073     0.202264994383     0.000000066286     
3.835000038147     0.207401007414     0.000000072835     
3.940000057220     0.212702006102     0.000000080301     
3.994999885559     0.221977993846     0.000000093017     
4.099999904633     0.227114006877     0.000000099823     
4.204999923706     0.232415005565     0.000000106335     
4.309999942780     0.237715005875     0.000000114486     
4.414999961853     0.243016004562     0.000000122846     
4.519999980927     0.248317003250     0.000000130409     
4.625000000000     0.253452986479     0.000000137719     
4.730000019073     0.258753985167     0.000000146290     
4.835000038147     0.263889014721     0.000000154524     
4.940000057220     0.269356012344     0.000000162801     
5.045000076294     0.274491012096     0.000000172128     
5.150000095367     0.279792010784     0.000000181329     
5.255000114441     0.285093009472     0.000000188933     
5.360000133514     0.290228009224     0.000000197672     
5.465000152588     0.295529007912     0.000000207503     
5.570000171661     0.300830006599     0.000000216536     
5.675000190735     0.306131005287     0.000000225820     
5.780000209808     0.311432003975     0.000000235778     
5.885000228882     0.316733002663     0.000000245441     
5.989999771118     0.321868002415     0.000000253885     
6.094999790192     0.327169001102     0.000000263842     
6.199999809265     0.332469999790     0.000000274388     
6.304999828339     0.337606012821     0.000000283841     
6.409999847412     0.342907011509     0.000000292747     
6.514999866486     0.348208010197     0.000000302956     
6.619999885559     0.353509008884     0.000000312325     
6.724999904633     0.358810007572     0.000000321148     
6.829999923706     0.363945007324     0.000000331315     
6.934999942780     0.369246006012     0.000000341188     
7.039999961853     0.374547004700     0.000000349129     
7.144999980927     0.379682004452     0.000000357616     
7.250000000000     0.384983003139     0.000000366984     
7.355000019073     0.390284001827     0.000000375471     
7.460000038147     0.395585000515     0.000000383874     
7.565000057220     0.400720000267     0.000000392612     
7.670000076294     0.406186997890     0.000000400805     
7.775000095367     0.411321997643     0.000000407611     
7.880000114441     0.416622996330     0.000000415426     
7.985000133514     0.421759009361     0.000000423912     
8.090000152588     0.427060008049     0.000000431012     
8.194999694824     0.432361006737     0.000000437903     
8.300000190735     0.437662005424     0.000000445759     
8.404999732971     0.442963004112     0.000000452775     
8.510000228882     0.448098003864     0.000000458993     
8.614999771118     0.453399002552     0.000000466766     
8.720000267029     0.458700001240     0.000000474454     
8.824999809265     0.463835000992     0.000000480378     
8.930000305176     0.469135999680     0.000000486470     
9.034999847412     0.474436998367     0.000000493738     
9.140000343323     0.479737997055     0.000000500334     
9.244999885559     0.485038995743     0.000000506678     
9.350000381470     0.490339994431     0.000000513988     
9.454999923706     0.495474994183     0.000000521046     
9.560000419617     0.500775992870     0.000000526256     
9.664999961853     0.506076991558     0.000000532852     
9.770000457764     0.511377990246     0.000000540036     
9.875000000000     0.516514003277     0.000000546590     
9.979999542236     0.521815001965     0.000000552892     
10.085000038147     0.527114987373     0.000000559993     
10.189999580383     0.532415986061     0.000000566463     
10.295000076294     0.537551999092     0.000000572344     
10.399999618530     0.542852997780     0.000000579613     
10.505000114441     0.548153996468     0.000000587133     
10.609999656677     0.553288996220     0.000000593099     
10.715000152588     0.558755993843     0.000000599191     
10.819999694824     0.563890993595     0.000000606585     
10.925000190735     0.569191992283     0.000000613475     
11.029999732971     0.574492990971     0.000000619693     
11.135000228882     0.579627990723     0.000000627508     
11.239999771118     0.585094988346     0.000000634944     
11.345000267029     0.590229988098     0.000000640616     
11.449999809265     0.595530986786     0.000000647380     
11.555000305176     0.600665986538     0.000000655152     
11.659999847412     0.605966985226     0.000000662168     
11.765000343323     0.611267983913     0.000000669185     
11.869999885559     0.616568982601     0.000000676789     
11.975000381470     0.621704995632     0.000000684183     
12.079999923706     0.627005994320     0.000000690443     
12.185000419617     0.632306993008     0.000000698384     
12.289999961853     0.637607991695     0.000000706660     
12.395000457764     0.642908990383     0.000000713971     
12.500000000000     0.648209989071     0.000000720945     
12.604999542236     0.653344988823     0.000000729431     
12.710000038147     0.658645987511     0.000000737078     
12.814999580383     0.663780987263     0.000000744640     
12.920000076294     0.669081985950     0.000000753799     
13.024999618530     0.674382984638     0.000000762538     
13.130000114441     0.679683983326     0.000000769638     
13.234999656677     0.684818983078     0.000000777789     
13.340000152588     0.690285980701     0.000000787031     
13.444999694824     0.695420980453     0.000000795728     
13.550000190735     0.700721979141     0.000000804425     
13.654999732971     0.706022977829     0.000000814046     
13.760000228882     0.711323976517     0.000000823289     
13.864999771118     0.716459989548     0.000000831691     
13.970000267029     0.721760988235     0.000000840892     
14.074999809265     0.727061986923     0.000000851437     
14.180000305176     0.732362985611     0.000000860974     
14.284999847412     0.737497985363     0.000000870259     
14.390000343323     0.742798984051     0.000000881015     
14.494999885559     0.748099982738     0.000000890888     
14.600000381470     0.753400981426     0.000000900341     
14.704999923706     0.758535981178     0.000000911306     
14.810000419617     0.763836979866     0.000000922188     
14.914999961853     0.769137978554     0.000000932145     
15.020000457764     0.774438977242     0.000000942102     
15.125000000000     0.779573976994     0.000000953697     
15.229999542236     0.784874975681     0.000000964411     
15.335000038147     0.790175974369     0.000000975292     
15.439999580383     0.795311987400     0.000000987308     
15.545000076294     0.800777971745     0.000000998861     
15.649999618530     0.806078970432     0.000001008651     
15.755000114441     0.811214029789     0.000001019952     
15.859999656677     0.816349983215     0.000001032262     
15.914999961853     0.825792014599     0.000001057339     
16.020000457764     0.831093013287     0.000001069288     
16.125000000000     0.836394011974     0.000001079310     
16.229999542236     0.841529011726     0.000001090874     
16.334999084473     0.846830010414     0.000001103209     
16.440000534058     0.852131009102     0.000001114773     
16.545000076294     0.857432007790     0.000001126723     
16.649999618530     0.862568020821     0.000001139443     
16.754999160767     0.867869019508     0.000001151393     
16.860000610352     0.873170018196     0.000001162571     
16.965000152588     0.878471016884     0.000001175292     
17.069999694824     0.883606016636     0.000001188398     
17.174999237061     0.888907015324     0.000001199962     
17.280000686646     0.894208014011     0.000001211911     
17.385000228882     0.899509012699     0.000001225403     
17.489999771118     0.904644012451     0.000001237738     
17.594999313354     0.909945011139     0.000001249687     
17.700000762939     0.915246009827     0.000001263179     
17.805000305176     0.920547008514     0.000001276670     
17.909999847412     0.925848007202     0.000001288620     
18.014999389648     0.930983006954     0.000001300954     
18.120000839233     0.936284005642     0.000001314831     
18.225000381470     0.941585004330     0.000001327552     
18.329999923706     0.946886003017     0.000001340658     
18.434999465942     0.952187001705     0.000001354920     
18.540000915527     0.957323014736     0.000001368797     
18.645000457764     0.962788999081     0.000001380746     
18.750000000000     0.967925012112     0.000001395009     
18.854999542236     0.973224997520     0.000001409271     
18.959999084473     0.978525996208     0.000001422762     
19.065000534058     0.983662009239     0.000001436639     
19.170000076294     0.988963007927     0.000001451672     
19.274999618530     0.994264006615     0.000001465935     
19.379999160767     0.999565005302     0.000001479812     
19.485000610352     1.004866003990     0.000001495616     
19.590000152588     1.010167002678     0.000001511420     
19.694999694824     1.015301942825     0.000001526453     
19.799999237061     1.020602941513     0.000001541487     
19.905000686646     1.025904059410     0.000001558062     
20.010000228882     1.031205058098     0.000001574251     
20.114999771118     1.036339998245     0.000001590441     
20.219999313354     1.041640996933     0.000001608558     
20.325000762939     1.046941995621     0.000001626289     
20.430000305176     1.052242994308     0.000001642479     
20.534999847412     1.057378053665     0.000001660211     
20.639999389648     1.062679052353     0.000001679484     
20.745000839233     1.067980051041     0.000001699143     
20.850000381470     1.073281049728     0.000001718031     
20.954999923706     1.078582048416     0.000001738461     
21.059999465942     1.083717942238     0.000001759276     
21.165000915527     1.089018940926     0.000001779320     
21.270000457764     1.094320058823     0.000001800906     
21.375000000000     1.099621057510     0.000001824035     
21.479999542236     1.104922056198     0.000001846777     
21.584999084473     1.110056996346     0.000001869520     
21.690000534058     1.115357995033     0.000001894575     
21.795000076294     1.120658993721     0.000001919245     
21.899999618530     1.125959992409     0.000001944686     
22.004999160767     1.131095051765     0.000001972440     
22.110000610352     1.136396050453     0.000002000579     
22.215000152588     1.141697049141     0.000002028333     
22.319999694824     1.146998047829     0.000002057243     
22.424999237061     1.152132987976     0.000002088466     
22.530000686646     1.157600045204     0.000002119689     
22.635000228882     1.162734985352     0.000002152839     
22.739999771118     1.168035984039     0.000002187145     
22.844999313354     1.173336982727     0.000002222608     
22.950000762939     1.178472995758     0.000002258457     
23.055000305176     1.183773040771     0.000002295847     
23.159999847412     1.189074039459     0.000002335165     
23.264999389648     1.194375038147     0.000002376410     
23.370000839233     1.198516964912     0.000002389516     
23.475000381470     1.194707036018     0.000002246893     
23.579999923706     1.189571022987     0.000002098873     
23.684999465942     1.184270024300     0.000001964730     
23.790000915527     1.178969025612     0.000001844464     
23.895000457764     1.173668980598     0.000001735377     
24.000000000000     1.168532967567     0.000001634770     
24.104999542236     1.163231968880     0.000001542643     
24.209999084473     1.157930970192     0.000001459382     
24.315000534058     1.152629971504     0.000001381132     
24.420000076294     1.147495031357     0.000001309820     
24.524999618530     1.142194032669     0.000001244676     
24.629999160767     1.136893033981     0.000001184929     
24.735000610352     1.131592035294     0.000001126723     
24.840000152588     1.126456975937     0.000001074685     
24.944999694824     1.121155977249     0.000001026501     
25.049999237061     1.116019964218     0.000000981402     
25.155000686646     1.110553979874     0.000000939000     
25.260000228882     1.105252981186     0.000000900453     
25.364999771118     1.100118041039     0.000000864219     
25.469999313354     1.094817042351     0.000000828371     
25.575000762939     1.089516043663     0.000000796377     
25.680000305176     1.084380030632     0.000000767081     
25.784999847412     1.079079031944     0.000000738171     
25.889999389648     1.073778033257     0.000000711959     
25.995000839233     1.068477034569     0.000000687289     
26.100000381470     1.063176035881     0.000000663390     
26.204999923706     1.057875037193     0.000000640648     
26.309999465942     1.052739977837     0.000000619833     
26.415000915527     1.047438979149     0.000000601330     
26.520000457764     1.042137980461     0.000000582057     
26.625000000000     1.036836981773     0.000000563940     
26.729999542236     1.031535983086     0.000000547750     
26.834999084473     1.026401042938     0.000000531560     
26.940000534058     1.021100044250     0.000000516142     
27.045000076294     1.015964984894     0.000000502650     
27.149999618530     1.010663986206     0.000000489544     
27.254999160767     1.005362987518     0.000000474897     
27.360000610352     1.000061988831     0.000000462562     
27.465000152588     0.994760990143     0.000000451383     
27.569999694824     0.989459991455     0.000000440204     
27.674999237061     0.984323978424     0.000000429026     
27.780000686646     0.979022979736     0.000000419004     
27.885000228882     0.973721981049     0.000000408982     
27.989999771118     0.968420982361     0.000000398574     
28.094999313354     0.963119983673     0.000000389708     
28.200000762939     0.957819998264     0.000000381613     
28.305000305176     0.952683985233     0.000000372748     
28.409999847412     0.947382986546     0.000000364267     
28.514999389648     0.942081987858     0.000000356943     
28.620000839233     0.936946988106     0.000000349234     
28.649999618530     0.926675975323     0.000000334508     
28.754999160767     0.921374976635     0.000000327828     
28.860000610352     0.916073977947     0.000000322114     
28.965000152588     0.910938978195     0.000000315560     
29.069999694824     0.905637979507     0.000000308082     
29.174999237061     0.900336980820     0.000000301864     
29.280000686646     0.895035982132     0.000000297033     
29.385000228882     0.889900982380     0.000000291151     
29.489999771118     0.884599983692     0.000000284933     
29.594999313354     0.879298985004     0.000000280017     
29.700000762939     0.873997986317     0.000000274388     
29.805000305176     0.868696987629     0.000000268380     
29.909999847412     0.863561987877     0.000000264010     
30.014999389648     0.858260989189     0.000000259599     
30.120000839233     0.852959990501     0.000000254095     
30.225000381470     0.847658991814     0.000000248760     
30.329999923706     0.842522978783     0.000000244558     
30.434999465942     0.837221980095     0.000000239769     
30.540000915527     0.831920981407     0.000000235063     
30.645000457764     0.826619982719     0.000000231576     
30.750000000000     0.821318984032     0.000000227501     
30.854999542236     0.816183984280     0.000000221787     
30.959999084473     0.810882985592     0.000000217334     
31.065000534058     0.805581986904     0.000000213931     
31.170000076294     0.800280988216     0.000000209729     
31.274999618530     0.795145988464     0.000000205486     
31.379999160767     0.789844989777     0.000000202041     
31.485000610352     0.784543991089     0.000000198008     
31.590000152588     0.779242992401     0.000000193008     
31.694999694824     0.774107992649     0.000000189647     
31.799999237061     0.768806993961     0.000000186622     
31.905000686646     0.763505995274     0.000000182757     
32.009998321533     0.758204996586     0.000000178346     
32.115001678467     0.752903997898     0.000000175363     
32.220001220703     0.747767984867     0.000000171413     
32.325000762939     0.742467999458     0.000000167128     
32.430000305176     0.737167000771     0.000000164397     
32.534999847412     0.731866002083     0.000000161498     
32.639999389648     0.726565003395     0.000000157003     
32.744998931885     0.721428990364     0.000000153012     
32.849998474121     0.716127991676     0.000000150281     
32.955001831055     0.710826992989     0.000000146710     
33.060001373291     0.705525994301     0.000000143055     
33.165000915527     0.700390994549     0.000000140660     
33.270000457764     0.695089995861     0.000000137425     
33.375000000000     0.689788997173     0.000000132761     
33.479999542236     0.684653997421     0.000000129442     
33.584999084473     0.679186999798     0.000000127132     
33.689998626709     0.674052000046     0.000000123729     
33.794998168945     0.668751001358     0.000000119989     
33.900001525879     0.663450002670     0.000000117259     
34.005001068115     0.658149003983     0.000000113813     
34.110000610352     0.652848005295     0.000000109402     
34.215000152588     0.647547006607     0.000000107007     
34.319999694824     0.642412006855     0.000000104235     
34.424999237061     0.637275993824     0.000000100579     
34.529998779297     0.631974995136     0.000000096630     
34.634998321533     0.626673996449     0.000000093647     
34.740001678467     0.621372997761     0.000000090118     
34.845001220703     0.616071999073     0.000000086337     
34.950000762939     0.610771000385     0.000000083900     
35.055000305176     0.605470001698     0.000000080917     
35.159999847412     0.600335001945     0.000000076044     
