
Cycle 1
Physical Cycle 1
Step 1

Time (s),          Potential (V),         Current (A)
0.104999996722     0.001818999997     -0.000001216002     
0.209999993443     0.007110000122     -0.000001132140     
0.314999997616     0.012400999665     -0.000001059714     
0.419999986887     0.017692999914     -0.000000994911     
0.449999988079     0.027778999880     -0.000000958603     
0.555000007153     0.033070001751     -0.000000904089     
0.660000026226     0.038361001760     -0.000000853030     
0.764999985695     0.043487001210     -0.000000806194     
0.870000004768     0.048778001219     -0.000000761662     
0.975000023842     0.054069999605     -0.000000719816     
1.080000042915     0.059195000678     -0.000000681042     
1.184999942780     0.064652003348     -0.000000643036     
1.289999961853     0.069778002799     -0.000000607333     
1.394999980927     0.075069002807     -0.000000573933     
1.500000000000     0.080360002816     -0.000000543221     
1.605000019073     0.085652001202     -0.000000511741     
1.710000038147     0.090943001211     -0.000000482181     
1.815000057220     0.096069000661     -0.000000455308     
1.919999957085     0.101360000670     -0.000000429202     
2.025000095367     0.106651000679     -0.000000403481     
2.130000114441     0.111942000687     -0.000000380447     
2.234999895096     0.117233999074     -0.000000357797     
2.339999914169     0.122524999082     -0.000000334379     
2.444999933243     0.127816006541     -0.000000314032     
2.549999952316     0.132942005992     -0.000000294837     
2.595000028610     0.142367005348     -0.000000268628     
2.700000047684     0.147658005357     -0.000000250541     
2.805000066757     0.152949005365     -0.000000234132     
2.910000085831     0.158240005374     -0.000000218226     
3.015000104904     0.163532003760     -0.000000202405     
3.119999885559     0.168658003211     -0.000000188514     
3.224999904633     0.173949003220     -0.000000174455     
3.329999923706     0.179240003228     -0.000000159851     
3.434999942780     0.184531003237     -0.000000147261     
3.539999961853     0.189657002687     -0.000000136056     
3.644999980927     0.194948002696     -0.000000123592     
3.750000000000     0.200239002705     -0.000000111631     
3.855000019073     0.205531001091     -0.000000101056     
3.960000038147     0.210822001100     -0.000000090522     
4.065000057220     0.216113001108     -0.000000080072     
4.170000076294     0.221239000559     -0.000000071175     
4.275000095367     0.226530000567     -0.000000061985     
4.380000114441     0.231821000576     -0.000000051451     
4.485000133514     0.237112998962     -0.000000042302     
4.590000152588     0.242238000035     -0.000000034245     
4.695000171661     0.247529998422     -0.000000025054     
4.800000190735     0.252820998430     -0.000000015654     
4.905000209808     0.258112013340     -0.000000007134     
5.010000228882     0.263238012791     0.000000002434     
5.119999885559     0.269356012344     0.000000011482     
5.224999904633     0.274482011795     0.000000021865     
5.329999923706     0.279772996902     0.000000031242     
5.434999942780     0.284898996353     0.000000040610     
5.539999961853     0.290024995804     0.000000051757     
5.644999980927     0.295150995255     0.000000062804     
5.750000000000     0.300442010164     0.000000073103     
5.775000095367     0.311190009117     0.000000100258     
5.880000114441     0.316480994225     0.000000112890     
5.985000133514     0.321772009134     0.000000125438     
6.090000152588     0.327062994242     0.000000139287     
6.195000171661     0.332188993692     0.000000154227     
6.300000190735     0.337480008602     0.000000168999     
6.405000209808     0.342772006989     0.000000185534     
6.510000228882     0.348062992096     0.000000203706     
6.614999771118     0.353188991547     0.000000221080     
6.719999790192     0.358480006456     0.000000238832     
6.824999809265     0.363770991564     0.000000259144     
6.929999828339     0.369062006474     0.000000279749     
7.034999847412     0.374188005924     0.000000299893     
7.139999866486     0.379478991032     0.000000321338     
7.244999885559     0.384770989418     0.000000343413     
7.349999904633     0.390062004328     0.000000364438     
7.454999923706     0.395352989435     0.000000386219     
7.559999942780     0.400478988886     0.000000409678     
7.664999961853     0.405770003796     0.000000431878     
7.769999980927     0.411060988903     0.000000452736     
7.875000000000     0.416186988354     0.000000474642     
7.980000019073     0.421478003263     0.000000496759     
8.085000038147     0.426770001650     0.000000518204     
8.189999580383     0.432060986757     0.000000539607     
8.295000076294     0.437186986208     0.000000561345     
8.399999618530     0.442478001118     0.000000581112     
8.505000114441     0.447768986225     0.000000601717     
8.609999656677     0.453060001135     0.000000623414     
8.715000152588     0.458351999521     0.000000643852     
8.819999694824     0.463643014431     0.000000663366     
8.925000190735     0.468769013882     0.000000684056     
9.029999732971     0.474059998989     0.000000704409     
9.135000228882     0.479351013899     0.000000723840     
9.239999771118     0.484641999006     0.000000743858     
9.345000267029     0.489767998457     0.000000764883     
9.449999809265     0.495059013367     0.000000783684     
9.555000305176     0.500185012817     0.000000802821     
9.659999847412     0.505475997925     0.000000823217     
9.765000343323     0.510767996311     0.000000843822     
9.869999885559     0.516058981419     0.000000862959     
9.975000381470     0.521350026131     0.000000882390     
10.079999923706     0.526476025581     0.000000901568     
10.185000419617     0.531767010689     0.000000920370     
10.289999961853     0.537057995796     0.000000939590     
10.395000457764     0.542349994183     0.000000959818     
10.500000000000     0.547640979290     0.000000978451     
10.604999542236     0.552766978741     0.000000996791     
10.710000038147     0.558058023453     0.000001015508     
10.739999771118     0.568639993668     0.000001067631     
10.845000267029     0.573931992054     0.000001085291     
10.949999809265     0.579222977161     0.000001102183     
11.055000305176     0.584514021873     0.000001120226     
11.159999847412     0.589805006981     0.000001139037     
11.265000343323     0.594931006432     0.000001157081     
11.369999885559     0.600221991539     0.000001175124     
11.475000381470     0.605513989925     0.000001193551     
11.579999923706     0.610804975033     0.000001210443     
11.685000419617     0.616096019745     0.000001228102     
11.789999961853     0.621222019196     0.000001246914     
11.895000457764     0.626513004303     0.000001264957     
12.000000000000     0.631803989410     0.000001281465     
12.104999542236     0.637094974518     0.000001299508     
12.210000038147     0.642386972904     0.000001316784     
12.314999580383     0.647678017616     0.000001333676     
12.420000076294     0.652969002724     0.000001350951     
12.524999618530     0.658259987831     0.000001368611     
12.630000114441     0.663551986217     0.000001384735     
12.734999656677     0.668676972389     0.000001401242     
12.840000152588     0.673968970776     0.000001418518     
12.944999694824     0.679260015488     0.000001435026     
13.050000190735     0.684551000595     0.000001450382     
13.154999732971     0.689841985703     0.000001465738     
13.260000228882     0.695133984089     0.000001480710     
13.364999771118     0.700425028801     0.000001495298     
13.470000267029     0.705716013908     0.000001509887     
13.574999809265     0.710842013359     0.000001525243     
13.680000305176     0.716132998466     0.000001539447     
13.784999847412     0.721423983574     0.000001552884     
13.890000343323     0.726715028286     0.000001566320     
13.994999885559     0.732007026672     0.000001580141     
14.100000381470     0.737133026123     0.000001592425     
14.204999923706     0.742588996887     0.000001605862     
14.310000419617     0.747714996338     0.000001618147     
14.414999961853     0.753005981445     0.000001629280     
14.520000457764     0.758297026157     0.000001641181     
14.625000000000     0.763423025608     0.000001655002     
14.729999542236     0.768880009651     0.000001666902     
14.835000038147     0.774170994759     0.000001677652     
14.939999580383     0.779296994209     0.000001689937     
15.045000076294     0.784587979317     0.000001702221     
15.149999618530     0.789879024029     0.000001712971     
15.255000114441     0.795171022415     0.000001724872     
15.359999656677     0.800296008587     0.000001737540     
15.465000152588     0.805752992630     0.000001749058     
15.569999694824     0.810878992081     0.000001760575     
15.675000190735     0.816169977188     0.000001773243     
15.779999732971     0.821295976639     0.000001786296     
15.885000228882     0.826752007008     0.000001798197     
15.989999771118     0.832044005394     0.000001810866     
16.094999313354     0.837170004845     0.000001822767     
16.200000762939     0.842460989952     0.000001835435     
16.305000305176     0.847751975060     0.000001848488     
16.409999847412     0.853043019772     0.000001863076     
16.514999389648     0.858334004879     0.000001875745     
16.620000839233     0.863626003265     0.000001888414     
16.725000381470     0.868752002716     0.000001903002     
16.829999923706     0.874042987823     0.000001917590     
16.934999465942     0.879333972931     0.000001931411     
17.040000915527     0.884625017643     0.000001945615     
17.145000457764     0.889916002750     0.000001960204     
17.250000000000     0.895208001137     0.000001974024     
17.354999542236     0.900332987309     0.000001988228     
17.459999084473     0.905624985695     0.000002004736     
17.565000534058     0.910915970802     0.000002020860     
17.670000076294     0.916207015514     0.000002035448     
17.774999618530     0.921498000622     0.000002051188     
17.879999160767     0.926789999008     0.000002067312     
17.985000610352     0.931914985180     0.000002083436     
18.090000152588     0.937206983566     0.000002100328     
18.194999694824     0.942663013935     0.000002117220     
18.299999237061     0.947789013386     0.000002132960     
18.405000686646     0.953079998493     0.000002148699     
18.510000228882     0.958370983601     0.000002167127     
18.614999771118     0.963662981987     0.000002184786     
18.719999313354     0.968954026699     0.000002200910     
18.825000762939     0.974080026150     0.000002218186     
18.930000305176     0.979371011257     0.000002236229     
19.034999847412     0.984661996365     0.000002253121     
19.139999389648     0.989952981472     0.000002271164     
19.245000839233     0.995244979858     0.000002290743     
19.350000381470     1.000535964966     0.000002308019     
19.454999923706     1.005661964417     0.000002324527     
19.559999465942     1.010952949524     0.000002343338     
19.665000915527     1.016244053841     0.000002362149     
19.770000457764     1.021535038948     0.000002380576     
19.875000000000     1.026826977730     0.000002398620     
19.979999542236     1.032117962837     0.000002417047     
20.084999084473     1.037243962288     0.000002434706     
20.190000534058     1.042700052261     0.000002453902     
20.295000076294     1.047826051712     0.000002474632     
20.399999618530     1.053117036819     0.000002493827     
20.504999160767     1.058408975601     0.000002512639     
20.610000610352     1.063699960709     0.000002533753     
20.715000152588     1.068990945816     0.000002555252     
20.819999694824     1.074116945267     0.000002577134     
20.924999237061     1.079408049583     0.000002600168     
21.030000686646     1.084699034691     0.000002624354     
21.135000228882     1.089990019798     0.000002648156     
21.239999771118     1.095281958580     0.000002672726     
21.344999313354     1.100407958031     0.000002700751     
21.450000762939     1.105864048004     0.000002729543     
21.555000305176     1.110990047455     0.000002758720     
21.659999847412     1.116281032562     0.000002789816     
21.764999389648     1.121572017670     0.000002822448     
21.870000839233     1.126863956451     0.000002857383     
21.975000381470     1.131989955902     0.000002893853     
22.079999923706     1.137280941010     0.000002933395     
22.184999465942     1.142572045326     0.000002973705     
22.290000915527     1.147863030434     0.000003015166     
22.395000457764     1.153154015541     0.000003060851     
22.500000000000     1.158445954323     0.000003109606     
22.604999542236     1.163571000099     0.000003159897     
22.709999084473     1.168863058090     0.000003212876     
22.815000534058     1.174154043198     0.000003268542     
22.920000076294     1.179445028305     0.000003325743     
23.024999618530     1.184736013412     0.000003387551     
23.129999160767     1.190027952194     0.000003453966     
23.235000610352     1.195152997971     0.000003521533     
23.340000152588     1.197633981705     0.000003469706     
23.444999694824     1.192672967911     0.000003197904     
23.549999237061     1.187381982803     0.000002956045     
23.655000686646     1.182255983353     0.000002738757     
23.760000228882     1.176964998245     0.000002543735     
23.864999771118     1.171674013138     0.000002368675     
23.969999313354     1.166381955147     0.000002207820     
24.075000762939     1.161090970039     0.000002062322     
24.180000305176     1.155964970589     0.000001931795     
24.284999847412     1.150673985481     0.000001812017     
24.389999389648     1.145383000374     0.000001701070     
24.495000839233     1.140092015266     0.000001600487     
24.600000381470     1.134799957275     0.000001508351     
24.704999923706     1.129675030708     0.000001423893     
24.809999465942     1.124382972717     0.000001346728     
24.915000915527     1.119091987610     0.000001276090     
25.020000457764     1.113801002502     0.000001209675     
25.125000000000     1.108510017395     0.000001148251     
25.229999542236     1.103219032288     0.000001093737     
25.334999084473     1.098093032837     0.000001043062     
25.440000534058     1.092800974846     0.000000994690     
25.545000076294     1.087509989738     0.000000950541     
25.649999618530     1.082219004631     0.000000908696     
25.754999160767     1.077093005180     0.000000869922     
25.860000610352     1.071802020073     0.000000834219     
25.965000152588     1.066344976425     0.000000802355     
26.069999694824     1.061220049858     0.000000770491     
26.174999237061     1.055927991867     0.000000740163     
26.280000686646     1.050637006760     0.000000713290     
26.385000228882     1.045511007309     0.000000687952     
26.489999771118     1.040220022202     0.000000663383     
26.594999313354     1.034929037094     0.000000640732     
26.700000762939     1.029638051987     0.000000619234     
26.805000305176     1.024345993996     0.000000598119     
26.909999847412     1.019055008888     0.000000578156     
27.014999389648     1.013764023781     0.000000560881     
27.120000839233     1.008473038673     0.000000543605     
27.225000381470     1.003347039223     0.000000525946     
27.329999923706     0.998055994511     0.000000509822     
27.434999465942     0.992763996124     0.000000494850     
27.540000915527     0.987473011017     0.000000479878     
27.645000457764     0.982182025909     0.000000466057     
27.750000000000     0.976890981197     0.000000452620     
27.854999542236     0.971764981747     0.000000438800     
27.959999084473     0.966473996639     0.000000425363     
28.065000534058     0.961181998253     0.000000414230     
28.170000076294     0.955891013145     0.000000402713     
28.274999618530     0.950600028038     0.000000390812     
28.379999160767     0.945474028587     0.000000379679     
28.485000610352     0.940182983875     0.000000368930     
28.590000152588     0.934891998768     0.000000357029     
28.694999694824     0.929601013660     0.000000347431     
28.799999237061     0.924309015274     0.000000338602     
28.864999771118     0.916041970253     0.000000313616     
28.969999313354     0.910584986210     0.000000303419     
29.075000762939     0.905458986759     0.000000294815     
29.180000305176     0.900003015995     0.000000286128     
29.284999847412     0.894877016544     0.000000276518     
29.389999389648     0.889585971832     0.000000267495     
29.495000839233     0.884293973446     0.000000258766     
29.600000381470     0.879002988338     0.000000248946     
29.704999923706     0.873876988888     0.000000240259     
29.809999465942     0.868586003780     0.000000232789     
29.915000915527     0.863295018673     0.000000224060     
30.020000457764     0.858003973961     0.000000214491     
30.125000000000     0.852712988853     0.000000206014     
30.229999542236     0.847420990467     0.000000197663     
30.334999084473     0.842294991016     0.000000188766     
30.440000534058     0.836839020252     0.000000181212     
30.545000076294     0.831713020802     0.000000173322     
30.649999618530     0.826421976089     0.000000163754     
30.754999160767     0.821130990982     0.000000155276     
30.860000610352     0.816004991531     0.000000148646     
30.965000152588     0.810714006424     0.000000141302     
31.069999694824     0.805422008038     0.000000132447     
31.174999237061     0.800131022930     0.000000124893     
31.280000686646     0.794839978218     0.000000117968     
31.385000228882     0.789713978767     0.000000110162     
31.489999771118     0.784256994724     0.000000103070     
31.594999313354     0.779132008553     0.000000097195     
31.700000762939     0.773840010166     0.000000089641     
31.805000305176     0.768549025059     0.000000081499     
31.909999847412     0.763423025608     0.000000075288     
32.014999389648     0.757966995239     0.000000069371     
32.119998931885     0.752840995789     0.000000062027     
32.224998474121     0.747550010681     0.000000055396     
32.330001831055     0.742258012295     0.000000048136     
32.435001373291     0.737133026123     0.000000040414     
32.540000915527     0.731675982475     0.000000033573     
32.645000457764     0.726549983025     0.000000028076     
32.750000000000     0.721258997917     0.000000020522     
32.854999542236     0.715968012810     0.000000012842     
32.959999084473     0.710676014423     0.000000007050     
33.020000457764     0.702243983746     -0.000000002514     
33.125000000000     0.696951985359     -0.000000007160     
33.229999542236     0.691661000252     -0.000000009983     
33.334999084473     0.686535000801     -0.000000011936     
33.439998626709     0.681244015694     -0.000000013244     
33.544998168945     0.675952970982     -0.000000012302     
33.650001525879     0.670661985874     -0.000000009353     
33.755001068115     0.665205001831     -0.000000005649     
33.860000610352     0.660079002380     0.000000000305     
33.965000152588     0.654622972012     0.000000007866     
34.069999694824     0.649330973625     0.000000015941     
34.174999237061     0.644039988518     0.000000024513     
34.279998779297     0.638749003410     0.000000033931     
34.384998321533     0.633292019367     0.000000042003     
34.490001678467     0.628000974655     0.000000049098     
34.595001220703     0.622709989548     0.000000055934     
34.700000762939     0.617419004440     0.000000061648     
34.805000305176     0.612128019333     0.000000064887     
34.909999847412     0.606836020947     0.000000067603     
35.014999389648     0.601544976234     0.000000069403     
35.119998931885     0.596253991127     0.000000069438     
