
Cycle 1
Physical Cycle 1
Step 1

Time (s),          Potential (V),         Current (A)
0.104999996722     0.002485000063     -0.000000168138     
0.209999993443     0.007619999815     -0.000000160495     
0.314999997616     0.012920999900     -0.000000149031     
0.419999986887     0.018222000450     -0.000000141388     
0.449999988079     0.028161000460     -0.000000124506     
0.555000007153     0.033461999148     -0.000000116026     
0.660000026226     0.038763001561     -0.000000109087     
0.764999985695     0.044064000249     -0.000000102149     
0.795000016689     0.054003998637     -0.000000089194     
0.899999976158     0.059305001050     -0.000000082556     
1.004999995232     0.064606003463     -0.000000076800     
1.110000014305     0.069907002151     -0.000000071716     
1.215000033379     0.075208000839     -0.000000066297     
1.320000052452     0.080343000591     -0.000000061465     
1.424999952316     0.085643999279     -0.000000057306     
1.529999971390     0.090944997966     -0.000000052264     
1.634999990463     0.096245996654     -0.000000047853     
1.740000009537     0.101380996406     -0.000000044450     
1.845000028610     0.106682002544     -0.000000041257     
1.950000047684     0.111983001232     -0.000000037434     
2.055000066757     0.117283999920     -0.000000034199     
2.160000085831     0.122584998608     -0.000000031384     
2.265000104904     0.127719998360     -0.000000027855     
2.369999885559     0.133020997047     -0.000000024872     
2.444999933243     0.140973001719     -0.000000020959     
2.549999952316     0.146274000406     -0.000000018900     
2.654999971390     0.151409000158     -0.000000017519     
2.759999990463     0.156709998846     -0.000000014960     
2.865000009537     0.161844998598     -0.000000012294     
2.970000028610     0.167145997286     -0.000000010455     
3.075000047684     0.172446995974     -0.000000008775     
3.180000066757     0.177747994661     -0.000000006458     
3.285000085831     0.182883992791     -0.000000004926     
3.390000104904     0.188185006380     -0.000000003682     
3.494999885559     0.193486005068     -0.000000001293     
3.599999904633     0.198621004820     0.000000000899     
3.704999923706     0.204087004066     0.000000002169     
3.809999942780     0.209223002195     0.000000003686     
3.914999961853     0.214524000883     0.000000005612     
4.019999980927     0.219659000635     0.000000007152     
4.125000000000     0.224959999323     0.000000008881     
4.230000019073     0.230260998011     0.000000011323     
4.335000038147     0.235395997763     0.000000013413     
4.440000057220     0.240696996450     0.000000014668     
4.545000076294     0.245997995138     0.000000016336     
4.650000095367     0.251298993826     0.000000018854     
4.755000114441     0.256435006857     0.000000020811     
4.860000133514     0.261736005545     0.000000023204     
4.965000152588     0.266871005297     0.000000026310     
5.070000171661     0.272336989641     0.000000028642     
5.175000190735     0.277473002672     0.000000030526     
5.280000209808     0.282774001360     0.000000033295     
5.385000228882     0.288075000048     0.000000036795     
5.489999771118     0.293209999800     0.000000039658     
5.594999790192     0.298510998487     0.000000042839     
5.699999809265     0.303645998240     0.000000046620     
5.804999828339     0.308946996927     0.000000049915     
5.909999847412     0.314247995615     0.000000052968     
6.014999866486     0.319384008646     0.000000056995     
6.119999885559     0.324685007334     0.000000061500     
6.224999904633     0.329986006021     0.000000065065     
6.329999923706     0.335121005774     0.000000068887     
6.434999942780     0.340422004461     0.000000073221     
6.539999961853     0.345557004213     0.000000077112     
6.644999980927     0.350858002901     0.000000080809     
6.750000000000     0.356159001589     0.000000085417     
6.820000171661     0.364607989788     0.000000092681     
6.925000190735     0.369908988476     0.000000096252     
7.030000209808     0.375209003687     0.000000099487     
7.135000228882     0.380510002375     0.000000103688     
7.239999771118     0.385645985603     0.000000107554     
7.344999790192     0.390947014093     0.000000110368     
7.449999809265     0.396248012781     0.000000113267     
7.554999828339     0.401549011469     0.000000116628     
7.659999847412     0.406850010157     0.000000119653     
7.764999866486     0.411985009909     0.000000122258     
7.869999885559     0.417286008596     0.000000125577     
7.974999904633     0.422587007284     0.000000128476     
8.079999923706     0.427888005972     0.000000130031     
8.185000419617     0.433189004660     0.000000132215     
8.289999961853     0.438324004412     0.000000135282     
8.395000457764     0.443625003099     0.000000137383     
8.500000000000     0.448926001787     0.000000139652     
8.604999542236     0.454227000475     0.000000142214     
8.710000038147     0.459362000227     0.000000144273     
8.814999580383     0.464662998915     0.000000145659     
8.920000076294     0.469963997602     0.000000147928     
9.024999618530     0.475264996290     0.000000150785     
9.130000114441     0.480401009321     0.000000152802     
9.234999656677     0.485702008009     0.000000154608     
9.340000152588     0.491003006697     0.000000157171     
9.444999694824     0.496304005384     0.000000159188     
9.550000190735     0.501604974270     0.000000161036     
9.654999732971     0.506739974022     0.000000163935     
9.760000228882     0.512040972710     0.000000166792     
9.864999771118     0.517341971397     0.000000168809     
9.970000267029     0.522643029690     0.000000170951     
10.074999809265     0.527944028378     0.000000173808     
10.180000305176     0.533079028130     0.000000176581     
10.284999847412     0.538380026817     0.000000179060     
10.390000343323     0.543681025505     0.000000182673     
10.494999885559     0.548982024193     0.000000185866     
10.600000381470     0.554117023945     0.000000188009     
10.704999923706     0.559418022633     0.000000190992     
10.810000419617     0.564719021320     0.000000194773     
10.914999961853     0.570020020008     0.000000198176     
11.020000457764     0.575155973434     0.000000201747     
11.125000000000     0.580456972122     0.000000205696     
11.229999542236     0.585757017136     0.000000209477     
11.335000038147     0.591058015823     0.000000212544     
11.439999580383     0.596359014511     0.000000216620     
11.545000076294     0.601660013199     0.000000221325     
11.649999618530     0.606796026230     0.000000225484     
11.755000114441     0.612097024918     0.000000229518     
11.859999656677     0.617398023605     0.000000234391     
11.965000152588     0.622699022293     0.000000238844     
12.069999694824     0.627834022045     0.000000243004     
12.175000190735     0.633135020733     0.000000248465     
12.279999732971     0.638436019421     0.000000253885     
12.385000228882     0.643571019173     0.000000258465     
12.489999771118     0.648872017860     0.000000263254     
12.595000267029     0.654173016548     0.000000269010     
12.699999809265     0.659474015236     0.000000274304     
12.805000305176     0.664775013924     0.000000279807     
12.909999847412     0.670076012611     0.000000286235     
13.015000343323     0.675211012363     0.000000292117     
13.119999885559     0.680512011051     0.000000297201     
13.225000381470     0.685813009739     0.000000302872     
13.329999923706     0.690949022770     0.000000309468     
13.435000419617     0.696415007114     0.000000315602     
13.539999961853     0.701551020145     0.000000321820     
13.645000457764     0.706686019897     0.000000328374     
13.750000000000     0.711987018585     0.000000334676     
13.854999542236     0.717454016209     0.000000340348     
13.960000038147     0.722589015961     0.000000346860     
14.064999580383     0.727890014648     0.000000353834     
14.170000076294     0.733191013336     0.000000360262     
14.274999618530     0.738492012024     0.000000366438     
14.380000114441     0.743627011776     0.000000373286     
14.484999656677     0.748928010464     0.000000379504     
14.590000152588     0.754229009151     0.000000385470     
14.694999694824     0.759530007839     0.000000392570     
14.800000190735     0.764665007591     0.000000399419     
14.904999732971     0.769966006279     0.000000405552     
15.010000228882     0.775267004967     0.000000411518     
15.114999771118     0.780568003654     0.000000418577     
15.220000267029     0.785869002342     0.000000424878     
15.324999809265     0.791005015373     0.000000431054     
15.430000305176     0.796306014061     0.000000438449     
15.534999847412     0.801605999470     0.000000445087     
15.640000343323     0.806742012501     0.000000450675     
15.744999885559     0.812043011189     0.000000456976     
15.850000381470     0.817344009876     0.000000463993     
15.954999923706     0.822645008564     0.000000470589     
16.059999465942     0.827780008316     0.000000477059     
16.165000915527     0.833081007004     0.000000484201     
16.270000457764     0.838382005692     0.000000490629     
16.375000000000     0.843517005444     0.000000496721     
16.479999542236     0.848818004131     0.000000503359     
16.584999084473     0.854119002819     0.000000510795     
16.690000534058     0.859420001507     0.000000517307     
16.795000076294     0.864721000195     0.000000523651     
16.899999618530     0.870021998882     0.000000530794     
17.004999160767     0.875322997570     0.000000537642     
17.110000610352     0.880457997322     0.000000544112     
17.215000152588     0.885758996010     0.000000551674     
17.319999694824     0.891059994698     0.000000558984     
17.424999237061     0.896360993385     0.000000565244     
17.530000686646     0.901497006416     0.000000572050     
17.635000228882     0.906798005104     0.000000579655     
17.739999771118     0.911933004856     0.000000586587     
17.844999313354     0.917400002480     0.000000593813     
17.950000762939     0.922535002232     0.000000601712     
18.055000305176     0.927836000919     0.000000609064     
18.159999847412     0.933136999607     0.000000615492     
18.264999389648     0.938271999359     0.000000622718     
18.370000839233     0.943572998047     0.000000630869     
18.475000381470     0.948873996735     0.000000638305     
18.579999923706     0.954174995422     0.000000645825     
18.684999465942     0.959475994110     0.000000654144     
18.790000915527     0.964610993862     0.000000661706     
18.895000457764     0.969911992550     0.000000669059     
19.000000000000     0.975212991238     0.000000677377     
19.104999542236     0.980513989925     0.000000686116     
19.209999084473     0.985650002956     0.000000694224     
19.315000534058     0.990951001644     0.000000702123     
19.420000076294     0.996252000332     0.000000711030     
19.524999618530     1.001553058624     0.000000719558     
19.629999160767     1.006854057312     0.000000728297     
19.735000610352     1.011988997459     0.000000737834     
19.840000152588     1.017289996147     0.000000747371     
19.944999694824     1.022590994835     0.000000756110     
20.049999237061     1.027726054192     0.000000765269     
20.155000686646     1.033027052879     0.000000775520     
20.260000228882     1.038328051567     0.000000785519     
20.364999771118     1.043629050255     0.000000795896     
20.469999313354     1.048930048943     0.000000806946     
20.575000762939     1.054064989090     0.000000817953     
20.680000305176     1.059365987778     0.000000828162     
20.784999847412     1.064666986465     0.000000839464     
20.889999389648     1.069802999496     0.000000851858     
20.995000839233     1.075103998184     0.000000864083     
21.100000381470     1.080404996872     0.000000876057     
21.204999923706     1.085705041885     0.000000889291     
21.309999465942     1.090841054916     0.000000902189     
21.415000915527     1.096142053604     0.000000915339     
21.520000457764     1.101443052292     0.000000929624     
21.625000000000     1.106577992439     0.000000944539     
21.729999542236     1.111878991127     0.000000959285     
21.834999084473     1.117179989815     0.000000974074     
21.940000534058     1.122480988503     0.000000990585     
22.045000076294     1.127781987190     0.000001006886     
22.149999618530     1.132917046547     0.000001023901     
22.194999694824     1.142856955528     0.000001061579     
22.299999237061     1.147992014885     0.000001080467     
22.405000686646     1.153293013573     0.000001099740     
22.510000228882     1.158759951591     0.000001120170     
22.614999771118     1.163895010948     0.000001142142     
22.719999313354     1.169196009636     0.000001163728     
22.825000762939     1.174330949783     0.000001186471     
22.930000305176     1.179631948471     0.000001210370     
23.034999847412     1.184932947159     0.000001235039     
23.139999389648     1.190068006516     0.000001259709     
23.245000839233     1.195369005203     0.000001287078     
23.350000381470     1.198516964912     0.000001280525     
23.454999923706     1.193878054619     0.000001185314     
23.559999465942     1.188577055931     0.000001099355     
23.665000915527     1.183277010918     0.000001023803     
23.770000457764     1.178140997887     0.000000955575     
23.875000000000     1.172839999199     0.000000894671     
23.979999542236     1.167705059052     0.000000839935     
24.084999084473     1.162238001823     0.000000790209     
24.190000534058     1.157102942467     0.000000744339     
24.295000076294     1.151801943779     0.000000702708     
24.399999618530     1.146500945091     0.000000666089     
24.504999160767     1.141199946404     0.000000630626     
24.610000610352     1.136065006256     0.000000598632     
24.715000152588     1.130764007568     0.000000569722     
24.819999694824     1.125463008881     0.000000542353     
24.924999237061     1.120162010193     0.000000516527     
25.030000686646     1.115025997162     0.000000494170     
25.135000228882     1.109560012817     0.000000472969     
25.239999771118     1.104424953461     0.000000452539     
25.344999313354     1.099123954773     0.000000433266     
25.450000762939     1.093822956085     0.000000416305     
25.555000305176     1.088686943054     0.000000400116     
25.659999847412     1.083385944366     0.000000384697     
25.764999389648     1.078084945679     0.000000370820     
25.870000839233     1.072783946991     0.000000357714     
25.975000381470     1.067482948303     0.000000344223     
26.079999923706     1.062181949615     0.000000332273     
26.139999389648     1.053568005562     0.000000314678     
26.245000839233     1.048432946205     0.000000304553     
26.350000381470     1.043131947517     0.000000295562     
26.454999923706     1.037830948830     0.000000286529     
26.559999465942     1.032529950142     0.000000276950     
26.665000915527     1.027228951454     0.000000269262     
26.770000457764     1.022094011307     0.000000262162     
26.875000000000     1.016793012619     0.000000255020     
26.979999542236     1.011492013931     0.000000247625     
27.084999084473     1.006191015244     0.000000241407     
27.190000534058     1.001055955887     0.000000235063     
27.295000076294     0.995589017868     0.000000228887     
27.399999618530     0.990454018116     0.000000223972     
27.504999160767     0.985153019428     0.000000219014     
27.610000610352     0.979852020741     0.000000212964     
27.715000152588     0.974716007710     0.000000207881     
27.819999694824     0.969415009022     0.000000203511     
27.924999237061     0.964114010334     0.000000198764     
28.030000686646     0.958813011646     0.000000194563     
28.135000228882     0.953678011894     0.000000190908     
28.239999771118     0.948377013206     0.000000186874     
28.344999313354     0.943076014519     0.000000182085     
28.450000762939     0.937775015831     0.000000178640     
28.555000305176     0.932474017143     0.000000175657     
28.659999847412     0.927173018456     0.000000172002     
28.764999389648     0.922038018703     0.000000168220     
28.870000839233     0.916737020016     0.000000165406     
28.975000381470     0.911436021328     0.000000161961     
29.079999923706     0.906301021576     0.000000158515     
29.184999465942     0.901000022888     0.000000156499     
29.290000915527     0.895699024200     0.000000153600     
29.395000457764     0.890398025513     0.000000150281     
29.500000000000     0.885262012482     0.000000147088     
29.604999542236     0.879961013794     0.000000144903     
29.709999084473     0.874661028385     0.000000142004     
29.815000534058     0.869360029697     0.000000139736     
29.920000076294     0.864058971405     0.000000137635     
30.024999618530     0.858757972717     0.000000135030     
30.129999160767     0.853456974030     0.000000131837     
30.235000610352     0.848155975342     0.000000129316     
30.340000152588     0.843020021915     0.000000127636     
30.444999694824     0.837719023228     0.000000125493     
30.549999237061     0.832418024540     0.000000122678     
30.655000686646     0.827283024788     0.000000120830     
30.760000228882     0.821982026100     0.000000118435     
30.864999771118     0.816681027412     0.000000115662     
30.969999313354     0.811546027660     0.000000114360     
31.075000762939     0.806245028973     0.000000112805     
31.180000305176     0.800943970680     0.000000109948     
31.284999847412     0.795642971992     0.000000107385     
31.389999389648     0.790341973305     0.000000105747     
31.495000839233     0.785040974617     0.000000103562     
31.600000381470     0.779905974865     0.000000101546     
31.704999923706     0.774604976177     0.000000100075     
31.809999465942     0.769303977489     0.000000098017     
31.915000915527     0.764002978802     0.000000095160     
32.020000457764     0.758701980114     0.000000093311     
32.125000000000     0.753566026688     0.000000091757     
32.229999542236     0.748265028000     0.000000089782     
32.334999084473     0.742964029312     0.000000087807     
32.439998626709     0.737662971020     0.000000086085     
32.544998168945     0.732362985611     0.000000083942     
32.650001525879     0.727226972580     0.000000081463     
32.755001068115     0.721925973892     0.000000079993     
32.860000610352     0.716790974140     0.000000078649     
32.965000152588     0.711489975452     0.000000076380     
33.069999694824     0.706188976765     0.000000073985     
33.174999237061     0.700887978077     0.000000072389     
33.279998779297     0.695586979389     0.000000070372     
33.384998321533     0.690285980701     0.000000068565     
33.490001678467     0.684984982014     0.000000067263     
33.595001220703     0.679849982262     0.000000065708     
33.700000762939     0.674548983574     0.000000062768     
33.805000305176     0.669247984886     0.000000060793     
33.909999847412     0.663946986198     0.000000059617     
34.014999389648     0.658811986446     0.000000057768     
34.119998931885     0.653344988823     0.000000055961     
34.224998474121     0.648209989071     0.000000054491     
34.330001831055     0.642908990383     0.000000052558     
34.435001373291     0.637607991695     0.000000050122     
34.540000915527     0.632306993008     0.000000048945     
34.645000457764     0.627170979977     0.000000047853     
34.750000000000     0.622035980225     0.000000045752     
34.854999542236     0.616568982601     0.000000043778     
34.959999084473     0.611433982849     0.000000042349     
35.064998626709     0.606132984161     0.000000040291     
35.169998168945     0.600831985474     0.000000038820     
