
Cycle 1
Physical Cycle 1
Step 1

Time (s),          Potential (V),         Current (A)
0.104999996722     0.002808999969     -0.000005954962     
0.209999993443     0.007931999862     -0.000005459994     
0.314999997616     0.013220000081     -0.000005026418     
0.419999986887     0.018508000299     -0.000004631211     
0.524999976158     0.023631000891     -0.000004270536     
0.629999995232     0.029084000736     -0.000003936721     
0.735000014305     0.034207001328     -0.000003629764     
0.839999973774     0.039494998753     -0.000003334318     
0.944999992847     0.044782999903     -0.000003058057     
1.049999952316     0.050071001053     -0.000002797144     
1.100000023842     0.059160001576     -0.000002297037     
1.205000042915     0.064447999001     -0.000002067218     
1.309999942780     0.069735996425     -0.000001847810     
1.414999961853     0.075024001300     -0.000001636499     
1.519999980927     0.080146998167     -0.000001433286     
1.625000000000     0.085435003042     -0.000001238171     
1.730000019073     0.090723000467     -0.000001051539     
1.835000038147     0.096010997891     -0.000000871077     
1.940000057220     0.101299002767     -0.000000698713     
2.045000076294     0.106421999633     -0.000000534831     
2.150000095367     0.111709997058     -0.000000376734     
2.255000114441     0.116998001933     -0.000000225578     
2.359999895096     0.122285999358     -0.000000084061     
2.464999914169     0.127408996224     0.000000052442     
2.569999933243     0.132697001100     0.000000181619     
2.660000085831     0.139638006687     0.000000342405     
2.765000104904     0.144759997725     0.000000454387     
2.869999885559     0.149883002043     0.000000560545     
2.974999904633     0.155171006918     0.000000661595     
3.079999923706     0.160293996334     0.000000755934     
3.184999942780     0.165582001209     0.000000845418     
3.289999961853     0.170870006084     0.000000930133     
3.394999980927     0.175992995501     0.000001008432     
3.494999885559     0.183099001646     0.000001110537     
3.599999904633     0.188387006521     0.000001171076     
3.704999923706     0.193509995937     0.000001223518     
3.809999942780     0.198963001370     0.000001269405     
3.914999961853     0.204086005688     0.000001306423     
4.019999980927     0.209373995662     0.000001333801     
4.125000000000     0.214662000537     0.000001351924     
4.230000019073     0.219950005412     0.000001362721     
4.335000038147     0.225072994828     0.000001362335     
4.440000057220     0.230360999703     0.000001355009     
4.545000076294     0.235649004579     0.000001340356     
4.650000095367     0.240936994553     0.000001319919     
4.755000114441     0.246224999428     0.000001292927     
4.860000133514     0.251513004303     0.000001265549     
4.965000152588     0.256801009178     0.000001235086     
5.070000171661     0.262089014053     0.000001204238     
5.175000190735     0.267212003469     0.000001173776     
5.280000209808     0.272664994001     0.000001145627     
5.385000228882     0.277788013220     0.000001117092     
5.489999771118     0.283075988293     0.000001089714     
5.594999790192     0.288363993168     0.000001064264     
5.699999809265     0.293651998043     0.000001038043     
5.804999828339     0.298774987459     0.000001012208     
5.909999847412     0.304062992334     0.000000987529     
6.014999866486     0.309516012669     0.000000963236     
6.119999885559     0.314639002085     0.000000940100     
6.224999904633     0.319927006960     0.000000918121     
6.329999923706     0.325215011835     0.000000898841     
6.434999942780     0.330502986908     0.000000879560     
6.539999961853     0.335790991783     0.000000863751     
6.644999980927     0.340914011002     0.000000849869     
6.750000000000     0.346367001534     0.000000837530     
6.855000019073     0.351655006409     0.000000826733     
6.960000038147     0.356777995825     0.000000819406     
7.065000057220     0.362066000700     0.000000812851     
7.170000076294     0.367354005575     0.000000806681     
7.275000095367     0.372642010450     0.000000803211     
7.380000114441     0.377929985523     0.000000801669     
7.485000133514     0.383053004742     0.000000800126     
7.590000152588     0.388507008553     0.000000800512     
7.695000171661     0.393629014492     0.000000802054     
7.800000190735     0.398916989565     0.000000803982     
7.905000209808     0.404204994440     0.000000806296     
8.010000228882     0.409492999315     0.000000810923     
8.114999771118     0.414781987667     0.000000814008     
8.220000267029     0.420069992542     0.000000817864     
8.324999809265     0.425191998482     0.000000822877     
8.430000305176     0.430480003357     0.000000828275     
8.534999847412     0.435768008232     0.000000833288     
8.640000343323     0.441056996584     0.000000839072     
8.744999885559     0.446345001459     0.000000845242     
8.850000381470     0.451633006334     0.000000850255     
8.954999923706     0.456755012274     0.000000856424     
9.060000419617     0.462042987347     0.000000862980     
9.164999961853     0.467332005501     0.000000868764     
9.270000457764     0.472620010376     0.000000874933     
9.375000000000     0.477907985449     0.000000881874     
9.479999542236     0.483195990324     0.000000888429     
9.585000038147     0.488483995199     0.000000893442     
9.689999580383     0.493607014418     0.000000900383     
9.795000076294     0.498894989491     0.000000906553     
9.899999618530     0.504347980022     0.000000911565     
10.005000114441     0.509470999241     0.000000917735     
10.109999656677     0.514759004116     0.000000924290     
10.215000152588     0.520047008991     0.000000929303     
10.319999694824     0.525335013866     0.000000934702     
10.425000190735     0.530623018742     0.000000941257     
10.529999732971     0.535745978355     0.000000946655     
10.635000228882     0.541033983231     0.000000951283     
10.739999771118     0.546321988106     0.000000957838     
10.845000267029     0.551609992981     0.000000963236     
10.949999809265     0.556897997856     0.000000969406     
11.055000305176     0.562021017075     0.000000974804     
11.159999847412     0.567309021950     0.000000980588     
11.265000343323     0.572762012482     0.000000985987     
11.369999885559     0.577884972095     0.000000991771     
11.475000381470     0.583172976971     0.000000999097     
11.579999923706     0.588460981846     0.000001004496     
11.685000419617     0.593584001064     0.000001010665     
11.789999961853     0.599036991596     0.000001018378     
11.895000457764     0.604324996471     0.000001026090     
12.000000000000     0.609448015690     0.000001032645     
12.104999542236     0.614736020565     0.000001040742     
12.210000038147     0.620024025440     0.000001049997     
12.314999580383     0.625311970711     0.000001057323     
12.420000076294     0.630599975586     0.000001066192     
12.524999618530     0.635887980461     0.000001075447     
12.630000114441     0.641010999680     0.000001083930     
12.734999656677     0.646463990211     0.000001093570     
12.840000152588     0.651587009430     0.000001104367     
12.944999694824     0.656875014305     0.000001114778     
13.050000190735     0.662163019180     0.000001124804     
13.154999732971     0.667451024055     0.000001136758     
13.260000228882     0.672739028931     0.000001147940     
13.364999771118     0.678026974201     0.000001159123     
13.470000267029     0.683314979076     0.000001171076     
13.574999809265     0.688437998295     0.000001184187     
13.680000305176     0.693726003170     0.000001195755     
13.784999847412     0.699014008045     0.000001208094     
13.890000343323     0.704302012920     0.000001221976     
13.994999885559     0.709590017796     0.000001234701     
14.100000381470     0.714712977409     0.000001248197     
14.204999923706     0.720000982285     0.000001262464     
14.310000419617     0.725454986095     0.000001277503     
14.414999961853     0.730576992035     0.000001290228     
14.520000457764     0.735864996910     0.000001305266     
14.625000000000     0.741153001785     0.000001321076     
14.729999542236     0.746441006660     0.000001335729     
14.835000038147     0.751730024815     0.000001351153     
14.939999580383     0.756851971149     0.000001367734     
15.045000076294     0.762139976025     0.000001383544     
15.149999618530     0.767593979836     0.000001399739     
15.255000114441     0.772715985775     0.000001417477     
15.359999656677     0.778005003929     0.000001434829     
15.465000152588     0.783293008804     0.000001452181     
15.569999694824     0.788581013680     0.000001470690     
15.675000190735     0.793869018555     0.000001489584     
15.779999732971     0.799157023430     0.000001508093     
15.885000228882     0.804279983044     0.000001528145     
15.989999771118     0.809567987919     0.000001548196     
16.094999313354     0.814855992794     0.000001567862     
16.200000762939     0.820143997669     0.000001588299     
16.305000305176     0.825432002544     0.000001609507     
16.409999847412     0.830720007420     0.000001630715     
16.514999389648     0.835843026638     0.000001651923     
16.620000839233     0.841130971909     0.000001674674     
16.725000381470     0.846418976784     0.000001696653     
16.829999923706     0.851706981659     0.000001718633     
16.934999465942     0.856994986534     0.000001741383     
17.040000915527     0.862118005753     0.000001765291     
17.145000457764     0.867406010628     0.000001786884     
17.250000000000     0.872694015503     0.000001808864     
17.354999542236     0.877982020378     0.000001831614     
17.459999084473     0.883270025253     0.000001852822     
17.565000534058     0.888557970524     0.000001874031     
17.670000076294     0.893845975399     0.000001896396     
17.774999618530     0.899133980274     0.000001916833     
17.879999160767     0.904256999493     0.000001936884     
17.985000610352     0.909709990025     0.000001958863     
18.090000152588     0.914833009243     0.000001978915     
18.194999694824     0.920121014118     0.000001998580     
18.299999237061     0.925409018993     0.000002019403     
18.405000686646     0.930531978607     0.000002039840     
18.510000228882     0.935985028744     0.000002059506     
18.614999771118     0.941107988358     0.000002080714     
18.719999313354     0.946395993233     0.000002101536     
18.825000762939     0.951683998108     0.000002122359     
18.930000305176     0.956972002983     0.000002143567     
19.034999847412     0.962260007858     0.000002165932     
19.139999389648     0.967548012733     0.000002187526     
19.245000839233     0.972670972347     0.000002209505     
19.350000381470     0.978124022484     0.000002233027     
19.454999923706     0.983246982098     0.000002258477     
19.559999465942     0.988534986973     0.000002281613     
19.665000915527     0.993822991848     0.000002306292     
19.770000457764     0.999110996723     0.000002331741     
19.875000000000     1.004398941994     0.000002357577     
19.979999542236     1.009686946869     0.000002384183     
20.084999084473     1.014809966087     0.000002412718     
20.190000534058     1.020097970963     0.000002440481     
20.295000076294     1.025385975838     0.000002469402     
20.399999618530     1.030673980713     0.000002500250     
20.504999160767     1.035796999931     0.000002531098     
20.610000610352     1.041249990463     0.000002561175     
20.715000152588     1.046373009682     0.000002594723     
20.819999694824     1.051661014557     0.000002627884     
20.924999237061     1.056949019432     0.000002661432     
21.030000686646     1.062237024307     0.000002696522     
21.135000228882     1.067525029182     0.000002733540     
21.239999771118     1.072648048401     0.000002769786     
21.344999313354     1.077936053276     0.000002807961     
21.450000762939     1.083389043808     0.000002848064     
21.555000305176     1.088511943817     0.000002888166     
21.659999847412     1.093799948692     0.000002928655     
21.764999389648     1.099087953568     0.000002972228     
21.870000839233     1.104375958443     0.000003016958     
21.975000381470     1.109663963318     0.000003062459     
22.079999923706     1.114786982536     0.000003109117     
22.184999465942     1.120074987411     0.000003157703     
22.290000915527     1.125362992287     0.000003205903     
22.395000457764     1.130650997162     0.000003255646     
22.500000000000     1.135939002037     0.000003308088     
22.604999542236     1.141062021255     0.000003360530     
22.709999084473     1.146350026131     0.000003413743     
22.815000534058     1.151638031006     0.000003470427     
22.920000076294     1.156926035881     0.000003527496     
23.024999618530     1.162214994431     0.000003584565     
23.129999160767     1.167502999306     0.000003644720     
23.235000610352     1.172791004181     0.000003707187     
23.340000152588     1.178079009056     0.000003768884     
23.444999694824     1.183367013931     0.000003834051     
23.549999237061     1.188490033150     0.000003901146     
23.655000686646     1.193778038025     0.000003969783     
23.760000228882     1.198238968849     0.000004003716     
23.864999771118     1.195099949837     0.000003776210     
23.969999313354     1.189977049828     0.000003529810     
24.075000762939     1.184689044952     0.000003307703     
24.180000305176     1.179401040077     0.000003105261     
24.284999847412     1.174113035202     0.000002920943     
24.389999389648     1.168990015984     0.000002750121     
24.495000839233     1.163702011108     0.000002593180     
24.600000381470     1.158414006233     0.000002448579     
24.704999923706     1.153290987015     0.000002314004     
24.809999465942     1.148002982140     0.000002189454     
24.915000915527     1.142714977264     0.000002074544     
25.020000457764     1.137426972389     0.000001967347     
25.125000000000     1.132138967514     0.000001866319     
25.229999542236     1.126850962639     0.000001773774     
25.334999084473     1.121562957764     0.000001687399     
25.440000534058     1.116274952888     0.000001605651     
25.545000076294     1.111152052879     0.000001529687     
25.649999618530     1.105864048004     0.000001458736     
25.754999160767     1.100576043129     0.000001391641     
25.860000610352     1.095453023911     0.000001328788     
25.965000152588     1.090000033379     0.000001270947     
26.069999694824     1.084712028503     0.000001214649     
26.174999237061     1.079422950745     0.000001162593     
26.280000686646     1.074301004410     0.000001114393     
26.385000228882     1.069012999535     0.000001068120     
26.489999771118     1.063724994659     0.000001023390     
26.594999313354     1.058436036110     0.000000982902     
26.700000762939     1.053148031235     0.000000944727     
26.805000305176     1.048025965691     0.000000907324     
26.909999847412     1.042737960815     0.000000872620     
27.014999389648     1.037449955940     0.000000840229     
27.120000839233     1.032160997391     0.000000808609     
27.225000381470     1.026872992516     0.000000778918     
27.329999923706     1.021584987640     0.000000751926     
27.434999465942     1.016296982765     0.000000724934     
27.540000915527     1.011175036430     0.000000698713     
27.645000457764     1.005885958672     0.000000675962     
27.750000000000     1.000597953796     0.000000652826     
27.854999542236     0.995310008526     0.000000630461     
27.959999084473     0.990022003651     0.000000609253     
28.065000534058     0.984899997711     0.000000588816     
28.170000076294     0.979610979557     0.000000568764     
28.274999618530     0.974322974682     0.000000549484     
28.379999160767     0.969035029411     0.000000532518     
28.485000610352     0.963747024536     0.000000515937     
28.590000152588     0.958459019661     0.000000499356     
28.694999694824     0.953171014786     0.000000485474     
28.799999237061     0.948047995567     0.000000470436     
28.905000686646     0.942595005035     0.000000455783     
29.010000228882     0.937471985817     0.000000442287     
29.114999771118     0.932183980942     0.000000429947     
29.219999313354     0.926895976067     0.000000416451     
29.325000762939     0.921607971191     0.000000404498     
29.430000305176     0.916485011578     0.000000392929     
29.534999847412     0.911032021046     0.000000380976     
29.639999389648     0.905909001827     0.000000369793     
29.745000839233     0.900620996952     0.000000359768     
29.850000381470     0.895332992077     0.000000348971     
29.954999923706     0.890044987202     0.000000338559     
29.989999771118     0.880129992962     0.000000327505     
30.094999313354     0.874841988087     0.000000318472     
30.200000762939     0.869553983212     0.000000309861     
30.305000305176     0.864265978336     0.000000300533     
30.409999847412     0.859143018723     0.000000291880     
30.514999389648     0.853855013847     0.000000283691     
30.620000839233     0.848567008972     0.000000275461     
30.725000381470     0.843279004097     0.000000266385     
30.829999923706     0.837990999222     0.000000258703     
30.934999465942     0.832702994347     0.000000251865     
31.040000915527     0.827414989471     0.000000243508     
31.145000457764     0.822291970253     0.000000235910     
31.250000000000     0.817004024982     0.000000229156     
31.354999542236     0.811716020107     0.000000221137     
31.459999084473     0.806428015232     0.000000213919     
31.565000534058     0.801140010357     0.000000207883     
31.670000076294     0.796016991138     0.000000200412     
31.774999618530     0.790728986263     0.000000192898     
31.879999160767     0.785440981388     0.000000186989     
31.985000610352     0.780152976513     0.000000180446     
32.090000152588     0.774864971638     0.000000173313     
32.194999694824     0.769577026367     0.000000167150     
32.299999237061     0.764454007149     0.000000161157     
32.404998779297     0.759166002274     0.000000154023     
32.509998321533     0.753877997398     0.000000147650     
32.615001678467     0.748589992523     0.000000142078     
32.720001220703     0.743301987648     0.000000135155     
32.825000762939     0.738013982773     0.000000128655     
32.930000305176     0.732725977898     0.000000123379     
33.034999847412     0.727603018284     0.000000117343     
33.139999389648     0.722315013409     0.000000110505     
33.244998931885     0.717027008533     0.000000104933     
33.349998474121     0.711739003658     0.000000099277     
33.455001831055     0.706450998783     0.000000092524     
33.560001373291     0.701162993908     0.000000086150     
33.665000915527     0.695873975754     0.000000080916     
33.770000457764     0.690752029419     0.000000074542     
33.875000000000     0.685464024544     0.000000067915     
33.979999542236     0.680176019669     0.000000063104     
34.084999084473     0.674888014793     0.000000056730     
34.189998626709     0.669598996639     0.000000049723     
34.294998168945     0.664476990700     0.000000044447     
34.400001525879     0.659188985825     0.000000038326     
34.505001068115     0.653900980949     0.000000031615     
34.610000610352     0.648612976074     0.000000025663     
34.715000152588     0.643324017525     0.000000019923     
34.819999694824     0.638036012650     0.000000012578     
34.849998474121     0.627955973148     0.000000001513     
34.955001831055     0.622833013535     -0.000000004659     
35.060001373291     0.617545008659     -0.000000010570     
35.165000915527     0.612421989441     -0.000000017277     
35.270000457764     0.607133984566     -0.000000024263     
