
Cycle 1
Physical Cycle 1
Step 1

Time (s),          Potential (V),         Current (A)
0.104999996722     0.002485000063     -0.000000343918     
0.209999993443     0.007619999815     -0.000000324811     
0.314999997616     0.012920999900     -0.000000301883     
0.419999986887     0.018222000450     -0.000000282777     
0.449999988079     0.028326999396     -0.000000248627     
0.555000007153     0.033628001809     -0.000000233208     
0.660000026226     0.038763001561     -0.000000217404     
0.764999985695     0.044064000249     -0.000000202371     
0.795000016689     0.054168999195     -0.000000177127     
0.899999976158     0.059470001608     -0.000000166372     
1.004999995232     0.064770996571     -0.000000154944     
1.110000014305     0.070072002709     -0.000000143307     
1.215000033379     0.075208000839     -0.000000133308     
1.320000052452     0.080508999527     -0.000000124191     
1.424999952316     0.085808999836     -0.000000114696     
1.529999971390     0.090944997966     -0.000000106545     
1.634999990463     0.096245996654     -0.000000099151     
1.740000009537     0.101547002792     -0.000000090748     
1.845000028610     0.106682002544     -0.000000082556     
1.950000047684     0.111983001232     -0.000000076422     
2.055000066757     0.117283999920     -0.000000070372     
2.160000085831     0.122584998608     -0.000000063650     
2.265000104904     0.127885997295     -0.000000057684     
2.369999885559     0.133186995983     -0.000000051970     
2.474999904633     0.138321995735     -0.000000045668     
2.579999923706     0.143622994423     -0.000000039870     
2.684999942780     0.148923993111     -0.000000036089     
2.789999961853     0.154060006142     -0.000000031090     
2.894999980927     0.159360006452     -0.000000025124     
3.000000000000     0.164661005139     -0.000000020208     
3.105000019073     0.169797003269     -0.000000015587     
3.170000076294     0.178244993091     -0.000000007364     
3.275000095367     0.183381006122     -0.000000002419     
3.380000114441     0.188682004809     0.000000001437     
3.484999895096     0.193817004561     0.000000006613     
3.589999914169     0.199118003249     0.000000012518     
3.694999933243     0.204419001937     0.000000017227     
3.799999952316     0.209720000625     0.000000022294     
3.904999971390     0.214855000377     0.000000028517     
4.010000228882     0.220155999064     0.000000034030     
4.114999771118     0.225290998816     0.000000039229     
4.219999790192     0.230591997504     0.000000045972     
4.324999809265     0.235727995634     0.000000052930     
4.429999828339     0.240862995386     0.000000058698     
4.534999847412     0.246163994074     0.000000065228     
4.639999866486     0.251464992762     0.000000073108     
4.744999885559     0.256599992514     0.000000080093     
4.804999828339     0.265545994043     0.000000094950     
4.909999847412     0.271012008190     0.000000102554     
5.014999866486     0.276147991419     0.000000109990     
5.119999885559     0.281448990107     0.000000119401     
5.224999904633     0.286749005318     0.000000129442     
5.329999923706     0.291884988546     0.000000138433     
5.434999942780     0.297185987234     0.000000147802     
5.539999961853     0.302486985922     0.000000158473     
5.644999980927     0.307621985674     0.000000168977     
5.750000000000     0.312923014164     0.000000179942     
5.855000019073     0.318224012852     0.000000192168     
5.960000038147     0.323525011539     0.000000204604     
6.065000057220     0.328826010227     0.000000215485     
6.170000076294     0.333961009979     0.000000227795     
6.275000095367     0.339262008667     0.000000241239     
6.380000114441     0.344563007355     0.000000254053     
6.485000133514     0.349698990583     0.000000266825     
6.590000152588     0.354999989271     0.000000280732     
6.695000171661     0.360300004482     0.000000293840     
6.800000190735     0.365601003170     0.000000305897     
6.905000209808     0.370736986399     0.000000319384     
7.010000228882     0.376038014889     0.000000333374     
7.114999771118     0.381339013577     0.000000345768     
7.219999790192     0.386640012264     0.000000357700     
7.324999809265     0.391775012016     0.000000370682     
7.429999828339     0.397076010704     0.000000382781     
7.534999847412     0.402377009392     0.000000394083     
7.639999866486     0.407512009144     0.000000406897     
7.744999885559     0.412979006767     0.000000418871     
7.849999904633     0.418114006519     0.000000429206     
7.954999923706     0.423415005207     0.000000439625     
8.060000419617     0.428716003895     0.000000450759     
8.164999961853     0.433851003647     0.000000461346     
8.270000457764     0.439152002335     0.000000471471     
8.375000000000     0.444453001022     0.000000482226     
8.479999542236     0.449753999710     0.000000492183     
8.585000038147     0.454890012741     0.000000500544     
8.689999580383     0.460355997086     0.000000510081     
8.795000076294     0.465492010117     0.000000520080     
8.899999618530     0.470793008804     0.000000529155     
9.005000114441     0.476094007492     0.000000537558     
9.109999656677     0.481229007244     0.000000547095     
9.215000152588     0.486530005932     0.000000555539     
9.319999694824     0.491831004620     0.000000563270     
9.425000190735     0.496966004372     0.000000572471     
9.529999732971     0.502267003059     0.000000581839     
9.635000228882     0.507568001747     0.000000589570     
9.739999771118     0.512869000435     0.000000597090     
9.845000267029     0.518004000187     0.000000605997     
9.949999809265     0.523304998875     0.000000614232     
10.055000305176     0.528605997562     0.000000622046     
10.159999847412     0.533742010593     0.000000631373     
10.265000343323     0.539043009281     0.000000640154     
10.369999885559     0.544508993626     0.000000647212     
10.475000381470     0.549645006657     0.000000655110     
10.579999923706     0.554946005344     0.000000664395     
10.685000419617     0.560081005096     0.000000672630     
10.789999961853     0.565548002720     0.000000680906     
10.895000457764     0.570683002472     0.000000690191     
11.000000000000     0.575984001160     0.000000698468     
11.104999542236     0.581284999847     0.000000706114     
11.210000038147     0.586585998535     0.000000715189     
11.314999580383     0.591720998287     0.000000724978     
11.420000076294     0.597021996975     0.000000733381     
11.524999618530     0.602156996727     0.000000741741     
11.630000114441     0.607457995415     0.000000751404     
11.734999656677     0.612758994102     0.000000760227     
11.840000152588     0.618059992790     0.000000768924     
11.944999694824     0.623360991478     0.000000779217     
12.050000190735     0.628497004509     0.000000789468     
12.154999732971     0.633798003197     0.000000797955     
12.260000228882     0.639099001884     0.000000807156     
12.364999771118     0.644400000572     0.000000817785     
12.470000267029     0.649535000324     0.000000827700     
12.574999809265     0.654835999012     0.000000837783     
12.680000305176     0.660136997700     0.000000848875     
12.784999847412     0.665271997452     0.000000859462     
12.890000343323     0.670572996140     0.000000868999     
12.994999885559     0.675873994827     0.000000880048     
13.100000381470     0.681174993515     0.000000891728     
13.204999923706     0.686475992203     0.000000902820     
13.310000419617     0.691610991955     0.000000913659     
13.414999961853     0.696911990643     0.000000925801     
13.520000457764     0.702212989330     0.000000937102     
13.625000000000     0.707513988018     0.000000948152     
13.729999542236     0.712650001049     0.000000961554     
13.835000038147     0.717950999737     0.000000974200     
13.939999580383     0.723250985146     0.000000985837     
14.045000076294     0.728551983833     0.000000997979     
14.149999618530     0.733852982521     0.000001011423     
14.255000114441     0.738988995552     0.000001024195     
14.274999618530     0.750087976456     0.000001058110     
14.380000114441     0.755388975143     0.000001070830     
14.484999656677     0.760689973831     0.000001083165     
14.590000152588     0.765990972519     0.000001096271     
14.694999694824     0.771291971207     0.000001111304     
14.800000190735     0.776426970959     0.000001125567     
14.904999732971     0.781728029251     0.000001139058     
15.010000228882     0.787029027939     0.000001154477     
15.114999771118     0.792330026627     0.000001168354     
15.220000267029     0.797631025314     0.000001182230     
15.324999809265     0.802766025066     0.000001197264     
15.430000305176     0.808067023754     0.000001213068     
15.534999847412     0.813202023506     0.000001227330     
15.640000343323     0.818669021130     0.000001241592     
15.744999885559     0.823804020882     0.000001257397     
15.850000381470     0.829105019569     0.000001272044     
15.954999923706     0.834406018257     0.000001287463     
16.059999465942     0.839541971684     0.000001303653     
16.165000915527     0.844842970371     0.000001319842     
16.270000457764     0.850144028664     0.000001333719     
16.375000000000     0.855444014072     0.000001349138     
16.479999542236     0.860580027103     0.000001365713     
16.584999084473     0.865881025791     0.000001381132     
16.690000534058     0.871182024479     0.000001396936     
16.795000076294     0.876483023167     0.000001413897     
16.899999618530     0.881784021854     0.000001429701     
17.004999160767     0.886919021606     0.000001444734     
17.110000610352     0.892220020294     0.000001460538     
17.215000152588     0.897521018982     0.000001477884     
17.319999694824     0.902656018734     0.000001493688     
17.424999237061     0.908123016357     0.000001509493     
17.530000686646     0.913424015045     0.000001526839     
17.635000228882     0.918559014797     0.000001542643     
17.739999771118     0.923860013485     0.000001558447     
17.844999313354     0.929161012173     0.000001575793     
17.950000762939     0.934462010860     0.000001593139     
18.055000305176     0.939763009548     0.000001609714     
18.159999847412     0.945064008236     0.000001625519     
18.264999389648     0.950199007988     0.000001643636     
18.370000839233     0.955335021019     0.000001660211     
18.475000381470     0.960801005363     0.000001677557     
18.579999923706     0.965937018394     0.000001695674     
18.684999465942     0.971238017082     0.000001713791     
18.790000915527     0.976539015770     0.000001729980     
18.895000457764     0.981840014458     0.000001747326     
19.000000000000     0.987141013145     0.000001766600     
19.104999542236     0.992276012897     0.000001784717     
19.209999084473     0.997577011585     0.000001802448     
19.315000534058     1.002877950668     0.000001822107     
19.420000076294     1.008013010025     0.000001840995     
19.524999618530     1.013314008713     0.000001859112     
19.629999160767     1.018615007401     0.000001878771     
19.735000610352     1.023916006088     0.000001899586     
19.840000152588     1.029217004776     0.000001919245     
19.944999694824     1.034351944923     0.000001938904     
20.049999237061     1.039652943611     0.000001960105     
20.155000686646     1.044953942299     0.000001981306     
20.260000228882     1.050254940987     0.000002002121     
20.364999771118     1.055390954018     0.000002025249     
20.469999313354     1.060691952705     0.000002047991     
20.575000762939     1.065991997719     0.000002069963     
20.680000305176     1.071292996407     0.000002093091     
20.784999847412     1.076593995094     0.000002118147     
20.889999389648     1.081730008125     0.000002142046     
20.995000839233     1.087031006813     0.000002167872     
21.100000381470     1.092332005501     0.000002194855     
21.204999923706     1.097633004189     0.000002221838     
21.309999465942     1.102934002876     0.000002247664     
21.415000915527     1.108068943024     0.000002275803     
21.520000457764     1.113369941711     0.000002306255     
21.625000000000     1.118670940399     0.000002335936     
21.729999542236     1.123972058296     0.000002366388     
21.834999084473     1.129106998444     0.000002399538     
21.940000534058     1.134574055672     0.000002432689     
22.045000076294     1.139708995819     0.000002466224     
22.149999618530     1.145009994507     0.000002502073     
22.254999160767     1.150310993195     0.000002539463     
22.360000610352     1.155446052551     0.000002576854     
22.465000152588     1.160912990570     0.000002616171     
22.569999694824     1.166048049927     0.000002657802     
22.674999237061     1.171349048615     0.000002699818     
22.780000686646     1.176650047302     0.000002743761     
22.885000228882     1.181785941124     0.000002790788     
22.989999771118     1.187087059021     0.000002838201     
23.094999313354     1.192388057709     0.000002885999     
23.200000762939     1.197522997856     0.000002935339     
23.305000305176     1.196694970131     0.000002810062     
23.409999847412     1.191558957100     0.000002606149     
23.514999389648     1.186257958412     0.000002427292     
23.620000839233     1.181123018265     0.000002268094     
23.725000381470     1.175822019577     0.000002122772     
23.829999923706     1.170521020889     0.000001990557     
23.934999465942     1.165220022202     0.000001871833     
24.040000915527     1.160084962845     0.000001764673     
24.145000457764     1.154783964157     0.000001665222     
24.250000000000     1.149482965469     0.000001574637     
24.354999542236     1.144348025322     0.000001492147     
24.459999084473     1.139047026634     0.000001415438     
24.565000534058     1.133746027946     0.000001344512     
24.670000076294     1.128445029259     0.000001280525     
24.774999618530     1.123144030571     0.000001221163     
24.879999160767     1.118008017540     0.000001164884     
24.985000610352     1.112707018852     0.000001113232     
25.090000152588     1.107406020164     0.000001066204     
25.194999694824     1.102105021477     0.000001021876     
25.299999237061     1.096804022789     0.000000979860     
25.405000686646     1.091668963432     0.000000942469     
25.510000228882     1.086367964745     0.000000907392     
25.614999771118     1.081066966057     0.000000872314     
25.719999313354     1.075765967369     0.000000840706     
25.825000762939     1.070631027222     0.000000812181     
25.930000305176     1.065330028534     0.000000784427     
26.034999847412     1.060029029846     0.000000758216     
26.139999389648     1.054728031158     0.000000735087     
26.245000839233     1.049592971802     0.000000711574     
26.350000381470     1.044291973114     0.000000689217     
26.454999923706     1.038990974426     0.000000669558     
26.559999465942     1.033689975739     0.000000651055     
26.665000915527     1.028388977051     0.000000632168     
26.770000457764     1.023087978363     0.000000614436     
26.875000000000     1.017951965332     0.000000598632     
26.979999542236     1.012650966644     0.000000582828     
27.084999084473     1.007349967957     0.000000567409     
27.190000534058     1.002215027809     0.000000554303     
27.295000076294     0.996914029121     0.000000541583     
27.399999618530     0.991612970829     0.000000527320     
27.504999160767     0.986311972141     0.000000514985     
27.610000610352     0.981010973454     0.000000503421     
27.715000152588     0.975875973701     0.000000491857     
27.819999694824     0.970574975014     0.000000481064     
27.924999237061     0.965273976326     0.000000471813     
28.030000686646     0.959972977638     0.000000462176     
28.135000228882     0.954671978951     0.000000451383     
28.239999771118     0.949370980263     0.000000441746     
28.344999313354     0.944235980511     0.000000433652     
28.450000762939     0.938934981823     0.000000425171     
28.555000305176     0.933633983135     0.000000416691     
28.659999847412     0.928332984447     0.000000408982     
28.764999389648     0.923197984695     0.000000400887     
28.870000839233     0.917896986008     0.000000392406     
28.975000381470     0.912595987320     0.000000385853     
29.079999923706     0.907459974289     0.000000379301     
29.184999465942     0.901993989944     0.000000371977     
29.290000915527     0.896692991257     0.000000364267     
29.395000457764     0.891556978226     0.000000358871     
29.500000000000     0.886255979538     0.000000351932     
29.604999542236     0.881120979786     0.000000345379     
29.700000762939     0.873997986317     0.000000337659     
29.805000305176     0.868696987629     0.000000331777     
29.909999847412     0.863561987877     0.000000326946     
30.014999389648     0.858260989189     0.000000320518     
30.120000839233     0.852959990501     0.000000314300     
30.225000381470     0.847658991814     0.000000309889     
30.329999923706     0.842522978783     0.000000305141     
30.434999465942     0.837221980095     0.000000299553     
30.540000915527     0.831920981407     0.000000293672     
30.645000457764     0.826785981655     0.000000288966     
30.750000000000     0.821484982967     0.000000283630     
30.854999542236     0.816183984280     0.000000278673     
30.959999084473     0.810882985592     0.000000274598     
31.065000534058     0.805747985840     0.000000270606     
31.170000076294     0.800446987152     0.000000264683     
31.274999618530     0.795145988464     0.000000259599     
31.379999160767     0.789844989777     0.000000255650     
31.485000610352     0.784543991089     0.000000250944     
31.590000152588     0.779408991337     0.000000246281     
31.694999694824     0.773941993713     0.000000242794     
31.799999237061     0.768806993961     0.000000238340     
31.905000686646     0.763505995274     0.000000232795     
32.009998321533     0.758204996586     0.000000229013     
32.115001678467     0.753068983555     0.000000225526     
32.220001220703     0.747767984867     0.000000221031     
32.325000762939     0.742467999458     0.000000216283     
32.430000305176     0.737167000771     0.000000213006     
32.534999847412     0.732030987740     0.000000208049     
32.639999389648     0.726729989052     0.000000203427     
32.744998931885     0.721428990364     0.000000200697     
32.849998474121     0.716127991676     0.000000197252     
32.955001831055     0.710992991924     0.000000192210     
33.060001373291     0.705691993237     0.000000187673     
33.165000915527     0.700390994549     0.000000184690     
33.270000457764     0.695089995861     0.000000180404     
33.375000000000     0.689788997173     0.000000176665     
33.479999542236     0.684487998486     0.000000173766     
33.584999084473     0.679186999798     0.000000170237     
33.689998626709     0.674052000046     0.000000165238     
33.794998168945     0.668751001358     0.000000161414     
33.900001525879     0.663450002670     0.000000158599     
34.005001068115     0.658149003983     0.000000154692     
34.110000610352     0.652848005295     0.000000150239     
34.215000152588     0.647713005543     0.000000147046     
34.319999694824     0.642576992512     0.000000142382     
34.424999237061     0.637111008167     0.000000137257     
34.529998779297     0.631974995136     0.000000133686     
34.634998321533     0.626673996449     0.000000129989     
34.740001678467     0.621372997761     0.000000124485     
34.845001220703     0.616071999073     0.000000119317     
34.950000762939     0.610936999321     0.000000115158     
35.055000305176     0.605636000633     0.000000109654     
35.159999847412     0.600335001945     0.000000104781     
