
Cycle 1
Physical Cycle 1
Step 1

Time (s),          Potential (V),         Current (A)
0.104999996722     0.002641000086     -0.000000221598     
0.209999993443     0.007922000252     -0.000000202494     
0.314999997616     0.013203999959     -0.000000187212     
0.419999986887     0.018485000357     -0.000000168109     
0.449999988079     0.028552999720     -0.000000129637     
0.555000007153     0.033833999187     -0.000000117712     
0.660000026226     0.039115998894     -0.000000106172     
0.764999985695     0.044397000223     -0.000000096170     
0.795000016689     0.054464999586     -0.000000076905     
0.899999976158     0.059746000916     -0.000000069080     
1.004999995232     0.064862996340     -0.000000060666     
1.110000014305     0.070143997669     -0.000000053724     
1.215000033379     0.075425997376     -0.000000047456     
1.320000052452     0.080706998706     -0.000000040809     
1.424999952316     0.085988000035     -0.000000035171     
1.529999971390     0.091269999743     -0.000000030165     
1.634999990463     0.096551001072     -0.000000024275     
1.740000009537     0.101668000221     -0.000000019310     
1.845000028610     0.106949001551     -0.000000015188     
1.945000052452     0.113550998271     -0.000000008412     
2.049999952316     0.118831999600     -0.000000004258     
2.154999971390     0.124113999307     -0.000000000181     
2.259999990463     0.129229992628     0.000000005371     
2.365000009537     0.134512007236     0.000000010002     
2.470000028610     0.139792993665     0.000000014518     
2.575000047684     0.144908994436     0.000000020459     
2.680000066757     0.150190994143     0.000000026176     
2.785000085831     0.155471995473     0.000000031335     
2.890000104904     0.160753995180     0.000000038415     
2.994999885559     0.165869995952     0.000000045596     
3.099999904633     0.171151995659     0.000000051933     
3.204999923706     0.176267996430     0.000000060133     
3.309999942780     0.181383997202     0.000000069231     
3.414999961853     0.186665996909     0.000000077231     
3.440000057220     0.197558999062     0.000000097815     
3.545000076294     0.202674999833     0.000000107870     
3.650000095367     0.207956999540     0.000000117335     
3.755000114441     0.213238000870     0.000000128148     
3.859999895096     0.218519002199     0.000000139633     
3.964999914169     0.223801001906     0.000000149688     
4.070000171661     0.229082003236     0.000000160290     
4.175000190735     0.234199002385     0.000000172154     
4.280000209808     0.239480003715     0.000000182756     
4.385000228882     0.244762003422     0.000000193189     
4.489999771118     0.250043004751     0.000000204759     
4.594999790192     0.255324006081     0.000000215529     
4.699999809265     0.260605990887     0.000000226257     
4.804999828339     0.265722006559     0.000000238121     
4.909999847412     0.271003991365     0.000000249143     
5.014999866486     0.276284992695     0.000000259829     
5.119999885559     0.281731992960     0.000000271777     
5.224999904633     0.286848008633     0.000000283641     
5.329999923706     0.292129009962     0.000000294075     
5.434999942780     0.297410994768     0.000000305855     
5.539999961853     0.302691996098     0.000000318013     
5.644999980927     0.307808995247     0.000000328910     
5.750000000000     0.313089996576     0.000000340184     
5.855000019073     0.318372011185     0.000000352511     
5.960000038147     0.323653012514     0.000000363534     
6.065000057220     0.328934013844     0.000000374346     
6.170000076294     0.334215998650     0.000000386294     
6.275000095367     0.339496999979     0.000000396980     
6.380000114441     0.344613999128     0.000000407708     
6.485000133514     0.349895000458     0.000000419488     
6.590000152588     0.355176985264     0.000000430342     
6.695000171661     0.360457986593     0.000000440692     
6.800000190735     0.365738987923     0.000000452303     
6.905000209808     0.371021002531     0.000000463368     
7.010000228882     0.376302003860     0.000000473044     
7.114999771118     0.381419003010     0.000000484361     
7.219999790192     0.386700004339     0.000000495510     
7.324999809265     0.391981989145     0.000000505354     
7.429999828339     0.397262990475     0.000000516167     
7.534999847412     0.402545005083     0.000000527694     
7.639999866486     0.407660990953     0.000000537749     
7.744999885559     0.413107007742     0.000000547972     
7.849999904633     0.418224006891     0.000000559415     
7.954999923706     0.423505008221     0.000000569597     
8.060000419617     0.428786993027     0.000000579862     
8.164999961853     0.434067994356     0.000000591431     
8.270000457764     0.439350008965     0.000000602244     
8.375000000000     0.444631010294     0.000000612677     
8.479999542236     0.449912011623     0.000000624541     
8.585000038147     0.455029010773     0.000000635942     
8.689999580383     0.460310012102     0.000000646460     
8.795000076294     0.465591996908     0.000000658492     
8.899999618530     0.470872998238     0.000000670735     
9.005000114441     0.476155012846     0.000000681968     
9.109999656677     0.481436014175     0.000000694210     
9.215000152588     0.486716985703     0.000000707463     
9.319999694824     0.491834014654     0.000000719495     
9.425000190735     0.497114986181     0.000000732242     
9.529999732971     0.502397000790     0.000000746041     
9.635000228882     0.507677972317     0.000000759210     
9.739999771118     0.512960016727     0.000000772336     
9.845000267029     0.518240988255     0.000000787187     
9.949999809265     0.523356974125     0.000000801154     
10.055000305176     0.528639018536     0.000000815080     
10.159999847412     0.533919990063     0.000000830436     
10.265000343323     0.539201974869     0.000000845623     
10.369999885559     0.544483006001     0.000000859927     
10.475000381470     0.549764990807     0.000000876082     
10.579999923706     0.554880976677     0.000000892322     
10.685000419617     0.560162007809     0.000000907804     
10.789999961853     0.565443992615     0.000000924506     
10.895000457764     0.570725023746     0.000000941839     
11.000000000000     0.576007008553     0.000000958331     
11.104999542236     0.581287980080     0.000000975790     
11.210000038147     0.586404979229     0.000000993796     
11.314999580383     0.591686010361     0.000001011256     
11.420000076294     0.596966981888     0.000001029178     
11.505000114441     0.604889988899     0.000001061335     
11.609999656677     0.610171020031     0.000001079030     
11.715000152588     0.615451991558     0.000001096726     
11.819999694824     0.620733976364     0.000001115960     
11.925000190735     0.625850021839     0.000001134424     
12.029999732971     0.631132006645     0.000001152120     
12.135000228882     0.636578023434     0.000001170584     
12.239999771118     0.641695022583     0.000001188664     
12.345000267029     0.646975994110     0.000001205206     
12.449999809265     0.652257025242     0.000001222901     
12.555000305176     0.657539010048     0.000001240212     
12.659999847412     0.662819981575     0.000001255214     
12.765000343323     0.667936980724     0.000001270986     
12.869999885559     0.673382997513     0.000001286758     
12.975000381470     0.678499996662     0.000001300606     
13.079999923706     0.683781027794     0.000001314840     
13.185000419617     0.689061999321     0.000001329073     
13.289999961853     0.694343984127     0.000001342152     
13.395000457764     0.699625015259     0.000001354462     
13.500000000000     0.704907000065     0.000001367926     
13.604999542236     0.710187971592     0.000001380235     
13.710000038147     0.715470016003     0.000001392545     
13.814999580383     0.720750987530     0.000001405240     
13.920000076294     0.726032972336     0.000001417165     
14.024999618530     0.731149017811     0.000001429090     
14.130000114441     0.736594974995     0.000001441784     
14.234999656677     0.741711974144     0.000001454864     
14.340000152588     0.746993005276     0.000001466019     
14.444999694824     0.752274990082     0.000001478714     
14.550000190735     0.757556021214     0.000001492178     
14.654999732971     0.762838006020     0.000001503718     
14.760000228882     0.768118977547     0.000001516413     
14.864999771118     0.773400008678     0.000001530646     
14.970000267029     0.778681993484     0.000001543340     
15.074999809265     0.783963024616     0.000001556035     
15.180000305176     0.789080023766     0.000001570268     
15.284999847412     0.794360995293     0.000001584116     
15.390000343323     0.799642980099     0.000001597580     
15.494999885559     0.804924011230     0.000001612583     
15.600000381470     0.810204982758     0.000001626816     
15.704999923706     0.815487027168     0.000001641049     
15.810000419617     0.820767998695     0.000001656436     
15.914999961853     0.825884997845     0.000001672593     
16.020000457764     0.831331014633     0.000001687980     
16.125000000000     0.836448013783     0.000001704137     
16.229999542236     0.841728985310     0.000001721447     
16.334999084473     0.847010016441     0.000001737219     
16.440000534058     0.852292001247     0.000001754530     
16.545000076294     0.857572972775     0.000001772995     
16.649999618530     0.862689971924     0.000001790305     
16.754999160767     0.868135988712     0.000001808385     
16.860000610352     0.873417973518     0.000001827619     
16.965000152588     0.878699004650     0.000001846084     
17.069999694824     0.883979976177     0.000001864549     
17.174999237061     0.889096975327     0.000001884937     
17.280000686646     0.894378006458     0.000001904556     
17.385000228882     0.899659991264     0.000001923790     
17.489999771118     0.904941022396     0.000001944947     
17.594999313354     0.910223007202     0.000001965720     
17.700000762939     0.915503978729     0.000001986108     
17.805000305176     0.920785009861     0.000002008035     
17.909999847412     0.926066994667     0.000002030346     
18.014999389648     0.931348025799     0.000002051119     
18.120000839233     0.936630010605     0.000002073046     
18.225000381470     0.941745996475     0.000002096511     
18.329999923706     0.947027981281     0.000002119208     
18.434999465942     0.952309012413     0.000002142288     
18.540000915527     0.957590997219     0.000002166139     
18.645000457764     0.962872028351     0.000002189989     
18.750000000000     0.968152999878     0.000002213454     
18.854999542236     0.973434984684     0.000002238459     
18.959999084473     0.978716015816     0.000002263078     
19.065000534058     0.983833014965     0.000002288083     
19.170000076294     0.989278972149     0.000002315010     
19.274999618530     0.994395971298     0.000002340784     
19.379999160767     0.999677002430     0.000002366558     
19.485000610352     1.004958033562     0.000002395024     
19.590000152588     1.010239958763     0.000002423106     
19.694999694824     1.015521049500     0.000002450033     
19.799999237061     1.020802974701     0.000002478884     
19.905000686646     1.025918960571     0.000002508889     
20.010000228882     1.031365990639     0.000002538125     
20.114999771118     1.036481976509     0.000002568900     
20.219999313354     1.041762948036     0.000002601598     
20.325000762939     1.047044992447     0.000002633526     
20.430000305176     1.052325963974     0.000002666609     
20.534999847412     1.057608008385     0.000002700845     
20.639999389648     1.062888979912     0.000002735851     
20.745000839233     1.068171024323     0.000002770857     
20.850000381470     1.073287010193     0.000002808941     
20.954999923706     1.078732967377     0.000002846639     
21.059999465942     1.083850026131     0.000002885108     
21.165000915527     1.089130997658     0.000002925499     
21.270000457764     1.094413042068     0.000002966660     
21.375000000000     1.099694013596     0.000003007436     
21.479999542236     1.104976058006     0.000003050905     
21.584999084473     1.110257029533     0.000003096297     
21.690000534058     1.115538001060     0.000003140920     
21.795000076294     1.120654940605     0.000003187851     
21.899999618530     1.125936031342     0.000003235552     
22.004999160767     1.131217956543     0.000003284406     
22.110000610352     1.136499047279     0.000003334800     
22.215000152588     1.141780972481     0.000003385962     
22.319999694824     1.147061944008     0.000003437509     
22.424999237061     1.152343034744     0.000003490980     
22.530000686646     1.157624959946     0.000003547144     
22.635000228882     1.162740945816     0.000003603692     
22.739999771118     1.168022990227     0.000003660624     
22.844999313354     1.173303961754     0.000003719096     
22.950000762939     1.178586006165     0.000003778721     
23.055000305176     1.183866977692     0.000003838347     
23.159999847412     1.189149022102     0.000003900665     
23.264999389648     1.194429993629     0.000003963368     
23.370000839233     1.198555946350     0.000003981448     
23.475000381470     1.194924950600     0.000003750640     
23.579999923706     1.189643979073     0.000003507521     
23.684999465942     1.184362053871     0.000003284406     
23.790000915527     1.179080963135     0.000003080141     
23.895000457764     1.173799037933     0.000002892032     
24.000000000000     1.168517947197     0.000002717771     
24.104999542236     1.163236021996     0.000002555436     
24.209999084473     1.157955050468     0.000002406564     
24.315000534058     1.152838945389     0.000002266540     
24.420000076294     1.147557020187     0.000002136903     
24.524999618530     1.142276048660     0.000002017267     
24.629999160767     1.136994004250     0.000001904556     
24.735000610352     1.131713032722     0.000001799153     
24.840000152588     1.126430988312     0.000001702213     
24.944999694824     1.121315002441     0.000001611044     
25.049999237061     1.116034030914     0.000001524875     
25.155000686646     1.110751986504     0.000001446016     
25.260000228882     1.105471014977     0.000001372157     
25.364999771118     1.100188970566     0.000001302145     
25.469999313354     1.094907999039     0.000001237903     
25.575000762939     1.089625954628     0.000001177509     
25.680000305176     1.084509968758     0.000001120191     
25.784999847412     1.079228997231     0.000001067490     
25.889999389648     1.073946952820     0.000001018635     
25.995000839233     1.068665981293     0.000000971704     
26.100000381470     1.063384056091     0.000000927851     
26.204999923706     1.058102965355     0.000000888228     
26.309999465942     1.052821040154     0.000000849376     
26.415000915527     1.047539949417     0.000000813216     
26.520000457764     1.042258977890     0.000000780902     
26.625000000000     1.037142038345     0.000000748974     
26.729999542236     1.031695961952     0.000000718584     
26.834999084473     1.026579022408     0.000000691272     
26.940000534058     1.021298050880     0.000000665498     
27.045000076294     1.016016006470     0.000000640109     
27.149999618530     1.010735034943     0.000000617028     
27.254999160767     1.005453944206     0.000000595486     
27.360000610352     1.000337004662     0.000000573559     
27.465000152588     0.995055973530     0.000000554325     
27.569999694824     0.989773988724     0.000000535861     
27.674999237061     0.984493017197     0.000000517396     
27.780000686646     0.979210972786     0.000000500085     
27.885000228882     0.973930001259     0.000000485083     
27.989999771118     0.968649029732     0.000000469311     
28.094999313354     0.963366985321     0.000000453924     
28.200000762939     0.958086013794     0.000000440844     
28.305000305176     0.952969014645     0.000000426996     
28.409999847412     0.947687983513     0.000000413917     
28.514999389648     0.942405998707     0.000000402376     
28.620000839233     0.936959981918     0.000000390067     
28.725000381470     0.931677997112     0.000000378526     
28.829999923706     0.926562011242     0.000000368524     
28.934999465942     0.921280980110     0.000000358523     
29.040000915527     0.915998995304     0.000000347367     
29.145000457764     0.910718023777     0.000000338135     
29.225000381470     0.902961015701     0.000000325712     
29.329999923706     0.897678971291     0.000000316919     
29.434999465942     0.892562985420     0.000000309178     
29.540000915527     0.887281000614     0.000000300890     
29.645000457764     0.882000029087     0.000000292308     
29.750000000000     0.876718997955     0.000000285366     
29.854999542236     0.871437013149     0.000000277709     
29.959999084473     0.866321027279     0.000000270137     
30.065000534058     0.860873997211     0.000000263868     
30.170000076294     0.855758011341     0.000000257011     
30.274999618530     0.850476026535     0.000000249606     
30.379999160767     0.845194995403     0.000000244095     
30.485000610352     0.839913010597     0.000000238079     
30.590000152588     0.834631979465     0.000000231389     
30.694999694824     0.829351007938     0.000000225710     
30.799999237061     0.824069023132     0.000000220535     
30.905000686646     0.818787992001     0.000000214056     
31.010000228882     0.813670992851     0.000000208335     
31.114999771118     0.808390021324     0.000000204001     
31.219999313354     0.803107976913     0.000000198238     
31.325000762939     0.797827005386     0.000000192810     
31.430000305176     0.792545974255     0.000000188393     
31.534999847412     0.787263989449     0.000000183302     
31.639999389648     0.781983017921     0.000000177917     
31.745000839233     0.776700973511     0.000000173879     
31.850000381470     0.771420001984     0.000000168956     
31.954999923706     0.766303002834     0.000000163950     
32.060001373291     0.761021971703     0.000000160206     
32.165000915527     0.755741000175     0.000000155872     
32.270000457764     0.750459015369     0.000000150403     
32.375000000000     0.745177984238     0.000000146785     
32.479999542236     0.739895999432     0.000000142957     
32.584999084473     0.734615027905     0.000000137782     
32.689998626709     0.729332983494     0.000000134122     
32.794998168945     0.724052011967     0.000000130924     
32.900001525879     0.718936026096     0.000000126044     
33.005001068115     0.713653981686     0.000000122132     
33.110000610352     0.708373010159     0.000000118808     
33.215000152588     0.703091025352     0.000000114601     
33.319999694824     0.697809994221     0.000000110141     
33.424999237061     0.692692995071     0.000000107238     
33.529998779297     0.687246978283     0.000000103116     
33.634998321533     0.681966006756     0.000000099329     
33.740001678467     0.676849007607     0.000000096216     
33.845001220703     0.671567976475     0.000000092598     
33.950000762939     0.666121006012     0.000000088517     
34.055000305176     0.660839974880     0.000000085740     
34.159999847412     0.655722975731     0.000000082375     
34.264999389648     0.650442004204     0.000000078041     
34.369998931885     0.645160973072     0.000000075307     
34.474998474121     0.639878988266     0.000000072278     
34.580001831055     0.634598016739     0.000000067944     
34.685001373291     0.629481017590     0.000000064789     
34.790000915527     0.624035000801     0.000000061802     
34.895000457764     0.618918001652     0.000000057763     
35.000000000000     0.613636970520     0.000000054061     
35.104999542236     0.608355998993     0.000000051411     
35.209999084473     0.603074014187     0.000000047203     
