
Cycle 1
Physical Cycle 1
Step 1

Time (s),          Potential (V),         Current (A)
0.104999996722     0.002479000017     -0.000001945339     
0.209999993443     0.007766999770     -0.000001661404     
0.314999997616     0.013055000454     -0.000001423512     
0.419999986887     0.018342999741     -0.000001216316     
0.449999988079     0.028423000127     -0.000000825190     
0.555000007153     0.033711001277     -0.000000684831     
0.660000026226     0.038998998702     -0.000000561052     
0.764999985695     0.044121999294     -0.000000452698     
0.870000004768     0.049410000443     -0.000000357454     
0.975000023842     0.054698001593     -0.000000275321     
1.080000042915     0.059985999018     -0.000000203984     
1.184999942780     0.065108999610     -0.000000141516     
1.299999952316     0.076181001961     -0.000000032459     
1.404999971390     0.081633999944     0.000000004981     
1.509999990463     0.086756996810     0.000000037271     
1.615000009537     0.092045001686     0.000000065932     
1.720000028610     0.097167998552     0.000000089105     
1.825000047684     0.102456003428     0.000000108943     
1.929999947548     0.107744000852     0.000000126671     
2.035000085831     0.113031998277     0.000000141993     
2.140000104904     0.118320003152     0.000000154065     
2.244999885559     0.123443000019     0.000000165715     
2.349999904633     0.128730997443     0.000000176141     
2.454999923706     0.134019002318     0.000000184667     
2.559999942780     0.139307007194     0.000000192687     
2.664999961853     0.144594997168     0.000000200960     
2.769999980927     0.149718001485     0.000000207587     
2.875000000000     0.155006006360     0.000000213497     
2.980000019073     0.160293996334     0.000000219870     
3.085000038147     0.165582001209     0.000000225864     
3.190000057220     0.170870006084     0.000000230043     
3.295000076294     0.175992995501     0.000000235277     
3.400000095367     0.181281000376     0.000000239793     
3.505000114441     0.186569005251     0.000000243086     
3.609999895096     0.191856995225     0.000000246378     
3.714999914169     0.197145000100     0.000000249839     
3.819999933243     0.202433004975     0.000000251992     
3.924999952316     0.207720994949     0.000000254356     
4.030000209808     0.212843999267     0.000000257015     
4.135000228882     0.218132004142     0.000000258323     
4.239999771118     0.223419994116     0.000000259168     
4.344999790192     0.228707998991     0.000000261278     
4.449999809265     0.233996003866     0.000000262924     
4.554999828339     0.239283993840     0.000000263853     
4.659999847412     0.244571998715     0.000000265499     
4.764999866486     0.249695003033     0.000000267947     
4.869999885559     0.254983007908     0.000000270015     
4.974999904633     0.260271012783     0.000000272590     
5.079999923706     0.265558987856     0.000000276516     
5.184999942780     0.270846992731     0.000000280315     
5.289999961853     0.276134997606     0.000000284282     
5.394999980927     0.281423002481     0.000000290107     
5.500000000000     0.286545991898     0.000000296228     
5.605000019073     0.291833996773     0.000000301842     
5.710000038147     0.297122001648     0.000000309397     
5.815000057220     0.302410006523     0.000000317881     
5.920000076294     0.307698011398     0.000000325437     
6.025000095367     0.312986999750     0.000000334596     
6.130000114441     0.318109005690     0.000000344853     
6.235000133514     0.323397010565     0.000000354773     
6.340000152588     0.328684985638     0.000000365367     
6.445000171661     0.333972990513     0.000000377355     
6.550000190735     0.339096009731     0.000000386725     
6.655000209808     0.344384014606     0.000000393057     
6.760000228882     0.349671989679     0.000000403018     
6.864999771118     0.354959994555     0.000000415977     
6.969999790192     0.360247999430     0.000000423870     
7.074999809265     0.365536987782     0.000000434802     
7.179999828339     0.370824992657     0.000000445945     
7.284999847412     0.375946998596     0.000000453501     
7.389999866486     0.381235003471     0.000000464222     
7.494999885559     0.386523008347     0.000000476210     
7.599999904633     0.391811996698     0.000000487227     
7.704999923706     0.396934002638     0.000000497019     
7.809999942780     0.402222007513     0.000000507234     
7.914999961853     0.407510012388     0.000000516900     
8.020000457764     0.412797987461     0.000000524962     
8.125000000000     0.418087005615     0.000000533699     
8.229999542236     0.423375010490     0.000000542775     
8.335000038147     0.428662985563     0.000000550541     
8.439999580383     0.433784991503     0.000000558730     
8.545000076294     0.439074009657     0.000000567383     
8.649999618530     0.444362014532     0.000000574432     
8.755000114441     0.449649989605     0.000000581565     
8.859999656677     0.454937994480     0.000000589754     
8.965000152588     0.460060000420     0.000000596887     
9.069999694824     0.465514004230     0.000000603430     
9.175000190735     0.470636993647     0.000000610817     
9.279999732971     0.475924998522     0.000000618077     
9.385000228882     0.481047004461     0.000000624281     
9.489999771118     0.486501008272     0.000000630951     
9.595000267029     0.491623997688     0.000000638211     
9.699999809265     0.496912002563     0.000000644711     
9.805000305176     0.502200007439     0.000000651169     
9.909999847412     0.507488012314     0.000000658682     
10.015000343323     0.512776017189     0.000000665394     
10.119999885559     0.518064022064     0.000000671894     
10.225000381470     0.523186981678     0.000000679534     
10.329999923706     0.528474986553     0.000000687089     
10.435000419617     0.533762991428     0.000000693548     
10.539999961853     0.539050996304     0.000000701145     
10.645000457764     0.544339001179     0.000000709418     
10.750000000000     0.549462020397     0.000000716636     
10.854999542236     0.554750025272     0.000000724234     
10.960000038147     0.560037970543     0.000000733140     
11.064999580383     0.565325975418     0.000000740780     
11.170000076294     0.570613980293     0.000000748927     
11.274999618530     0.575901985168     0.000000758297     
11.380000114441     0.581189990044     0.000000767077     
11.484999656677     0.586313009262     0.000000775223     
11.590000152588     0.591601014137     0.000000785100     
11.694999694824     0.596889019012     0.000000794640     
11.800000190735     0.602177023888     0.000000803673     
11.904999732971     0.607299983501     0.000000813550     
12.010000228882     0.612587988377     0.000000824440     
12.114999771118     0.617875993252     0.000000834021     
12.220000267029     0.623163998127     0.000000843899     
12.324999809265     0.628452003002     0.000000855380     
12.430000305176     0.633740007877     0.000000865974     
12.534999847412     0.638863027096     0.000000875640     
12.640000343323     0.644150972366     0.000000887586     
12.744999885559     0.649604022503     0.000000899446     
12.850000381470     0.654726982117     0.000000910168     
12.954999923706     0.659850001335     0.000000921607     
13.060000419617     0.665138006210     0.000000933974     
13.164999961853     0.670426011086     0.000000945033     
13.270000457764     0.675714015961     0.000000956683     
13.375000000000     0.681002020836     0.000000969388     
13.479999542236     0.686290025711     0.000000981207     
13.585000038147     0.691577970982     0.000000992688     
13.689999580383     0.696865975857     0.000001005435     
13.795000076294     0.702153980732     0.000001017676     
13.899999618530     0.707276999950     0.000001029157     
14.005000114441     0.712565004826     0.000001041567     
14.095000267029     0.720166027546     0.000001057323     
14.199999809265     0.725454986095     0.000001068892     
14.305000305176     0.730742990971     0.000001080460     
14.409999847412     0.736030995846     0.000001092028     
14.515000343323     0.741153001785     0.000001104367     
14.619999885559     0.746441006660     0.000001116321     
14.725000381470     0.751730024815     0.000001127889     
14.829999923706     0.757018029690     0.000001140614     
14.935000419617     0.762305974960     0.000001152182     
15.039999961853     0.767593979836     0.000001163750     
15.145000457764     0.772715985775     0.000001176860     
15.250000000000     0.778005003929     0.000001188428     
15.354999542236     0.783293008804     0.000001198840     
15.460000038147     0.788581013680     0.000001211565     
15.564999580383     0.793869018555     0.000001223518     
15.670000076294     0.799157023430     0.000001233544     
15.774999618530     0.804445028305     0.000001245112     
15.880000114441     0.809567987919     0.000001256680     
15.984999656677     0.814855992794     0.000001267091     
16.090000152588     0.820143997669     0.000001277503     
16.194999694824     0.825432002544     0.000001288685     
16.299999237061     0.830720007420     0.000001298711     
16.405000686646     0.836008012295     0.000001308351     
16.510000228882     0.841296017170     0.000001318762     
16.614999771118     0.846584022045     0.000001329174     
16.719999313354     0.851706981659     0.000001338042     
16.825000762939     0.856994986534     0.000001347682     
16.930000305176     0.862282991409     0.000001357323     
17.034999847412     0.867570996284     0.000001365806     
17.139999389648     0.872859001160     0.000001374675     
17.245000839233     0.877982020378     0.000001384315     
17.350000381470     0.883270025253     0.000001392412     
17.454999923706     0.888723015785     0.000001400510     
17.559999465942     0.894011020660     0.000001409765     
17.665000915527     0.899133980274     0.000001419019     
17.770000457764     0.904421985149     0.000001426345     
17.875000000000     0.909709990025     0.000001434829     
17.979999542236     0.914997994900     0.000001442926     
18.084999084473     0.920285999775     0.000001450253     
18.190000534058     0.925409018993     0.000001457965     
18.295000076294     0.930697023869     0.000001466063     
18.399999618530     0.935985028744     0.000001473775     
18.504999160767     0.941272974014     0.000001481487     
18.610000610352     0.946560978889     0.000001489584     
18.715000152588     0.951848983765     0.000001498068     
18.819999694824     0.957136988640     0.000001505009     
18.924999237061     0.962260007858     0.000001513492     
19.030000686646     0.967548012733     0.000001521589     
19.135000228882     0.972836017609     0.000001529301     
19.239999771118     0.978124022484     0.000001537399     
19.344999313354     0.983412027359     0.000001546654     
19.450000762939     0.988534986973     0.000001554751     
19.555000305176     0.993822991848     0.000001563235     
19.659999847412     0.999110996723     0.000001573260     
19.764999389648     1.004398941994     0.000001582515     
19.870000839233     1.009686946869     0.000001591384     
19.975000381470     1.014974951744     0.000001602566     
20.079999923706     1.020262956619     0.000001613363     
20.184999465942     1.025385975838     0.000001623389     
20.290000915527     1.030673980713     0.000001634957     
20.395000457764     1.035961985588     0.000001647682     
20.500000000000     1.041249990463     0.000001659635     
20.604999542236     1.046537995338     0.000001672746     
20.709999084473     1.051826000214     0.000001686628     
20.815000534058     1.057114005089     0.000001700509     
20.920000076294     1.062237024307     0.000001715548     
21.024999618530     1.067525029182     0.000001732514     
21.129999160767     1.072813034058     0.000001749095     
21.235000610352     1.078101038933     0.000001766062     
21.340000152588     1.083389043808     0.000001784956     
21.444999694824     1.088678002357     0.000001805008     
21.549999237061     1.093966007233     0.000001824673     
21.655000686646     1.099254012108     0.000001846267     
21.760000228882     1.104375958443     0.000001869789     
21.864999771118     1.109663963318     0.000001893311     
21.969999313354     1.114953041077     0.000001917604     
22.075000762939     1.120241045952     0.000001945367     
22.180000305176     1.125529050827     0.000001972745     
22.284999847412     1.130817055702     0.000002001665     
22.389999389648     1.136104941368     0.000002032899     
22.495000839233     1.141227960587     0.000002066446     
22.600000381470     1.146515965462     0.000002099223     
22.704999923706     1.151803970337     0.000002135855     
22.809999465942     1.157091975212     0.000002174030     
22.915000915527     1.162379980087     0.000002213747     
23.020000457764     1.167502999306     0.000002255778     
23.125000000000     1.172791004181     0.000002300893     
23.229999542236     1.178079009056     0.000002346009     
23.334999084473     1.183367013931     0.000002394209     
23.440000534058     1.188655018806     0.000002446265     
23.545000076294     1.193778038025     0.000002500250     
23.649999618530     1.198238968849     0.000002524157     
23.754999160767     1.194934010506     0.000002356420     
23.860000610352     1.189481019974     0.000002178271     
23.965000152588     1.184358000755     0.000002020174     
24.069999694824     1.179069995880     0.000001879043     
24.174999237061     1.173781991005     0.000001752951     
24.280000686646     1.168493986130     0.000001637270     
24.385000228882     1.163370966911     0.000001533543     
24.489999771118     1.158082962036     0.000001440227     
24.594999313354     1.152794957161     0.000001354238     
24.700000762939     1.147506952286     0.000001275189     
24.805000305176     1.142218947411     0.000001203467     
24.909999847412     1.136930942535     0.000001138686     
25.014999389648     1.131808042526     0.000001076989     
25.120000839233     1.126520037651     0.000001021462     
25.225000381470     1.121232032776     0.000000970563     
25.329999923706     1.115944027901     0.000000922362     
25.434999465942     1.110656023026     0.000000878404     
25.540000915527     1.105368018150     0.000000838301     
25.645000457764     1.100244998932     0.000000800126     
25.750000000000     1.094956994057     0.000000764265     
25.854999542236     1.089668989182     0.000000733031     
25.959999084473     1.084380984306     0.000000702183     
26.065000534058     1.079092979431     0.000000672877     
26.170000076294     1.073804974556     0.000000646271     
26.274999618530     1.068516969681     0.000000621978     
26.379999160767     1.063393950462     0.000000597685     
26.485000610352     1.058105945587     0.000000575320     
26.590000152588     1.052817940712     0.000000555268     
26.694999694824     1.047530055046     0.000000535603     
26.799999237061     1.042242050171     0.000000517479     
26.905000686646     1.036954045296     0.000000500127     
27.010000228882     1.031831026077     0.000000484317     
27.114999771118     1.026543021202     0.000000468508     
27.219999313354     1.021255016327     0.000000454240     
27.325000762939     1.015967011452     0.000000440359     
27.430000305176     1.010679006577     0.000000426863     
27.534999847412     1.005391001701     0.000000414909     
27.639999389648     1.000102996826     0.000000403341     
27.745000839233     0.994979977608     0.000000391773     
27.850000381470     0.989691972733     0.000000380205     
27.954999923706     0.984404027462     0.000000371336     
28.059999465942     0.979116022587     0.000000361696     
28.165000915527     0.973828017712     0.000000351670     
28.270000457764     0.968540012836     0.000000342801     
28.329999923706     0.959946990013     0.000000335989     
28.434999465942     0.954657971859     0.000000328096     
28.540000915527     0.949370026588     0.000000321131     
28.645000457764     0.944082021713     0.000000313280     
28.750000000000     0.938794016838     0.000000305598     
28.854999542236     0.933672010899     0.000000299604     
28.959999084473     0.928382992744     0.000000293020     
29.065000534058     0.923094987869     0.000000286182     
29.170000076294     0.917806982994     0.000000280399     
29.274999618530     0.912518978119     0.000000274701     
29.379999160767     0.907230973244     0.000000268158     
29.485000610352     0.902108013630     0.000000262587     
29.590000152588     0.896655023098     0.000000257606     
29.694999694824     0.891532003880     0.000000251485     
29.799999237061     0.886243999004     0.000000245956     
29.905000686646     0.881121993065     0.000000241693     
30.010000228882     0.875667989254     0.000000236881     
30.114999771118     0.870379984379     0.000000231183     
30.219999313354     0.865257024765     0.000000226835     
30.325000762939     0.859969019890     0.000000222825     
30.430000305176     0.854681015015     0.000000217296     
30.534999847412     0.849393010139     0.000000212948     
30.639999389648     0.844105005264     0.000000209107     
30.745000839233     0.838981986046     0.000000203957     
30.850000381470     0.833693981171     0.000000199567     
30.954999923706     0.828240990639     0.000000196444     
31.059999465942     0.823117971420     0.000000191928     
31.165000915527     0.817830026150     0.000000186989     
31.270000457764     0.812542021275     0.000000183739     
31.375000000000     0.807254016399     0.000000180151     
31.479999542236     0.801966011524     0.000000175508     
31.584999084473     0.796678006649     0.000000171836     
31.690000534058     0.791554987431     0.000000168248     
31.795000076294     0.786266982555     0.000000163816     
31.899999618530     0.780978977680     0.000000160059     
32.005001068115     0.775690972805     0.000000156936     
32.110000610352     0.770568013191     0.000000152841     
32.215000152588     0.765280008316     0.000000148705     
32.319999694824     0.759992003441     0.000000145666     
32.424999237061     0.754703998566     0.000000142247     
32.529998779297     0.749415993690     0.000000137984     
32.634998321533     0.744127988815     0.000000134649     
32.740001678467     0.738839983940     0.000000131483     
32.845001220703     0.733717024326     0.000000127473     
32.950000762939     0.728429019451     0.000000123674     
33.055000305176     0.723141014576     0.000000121057     
33.159999847412     0.717853009701     0.000000117132     
33.264999389648     0.712565004826     0.000000112700     
33.369998931885     0.707441985607     0.000000110167     
33.474998474121     0.702153980732     0.000000107044     
33.580001831055     0.696865975857     0.000000102696     
33.685001373291     0.691577970982     0.000000099742     
33.790000915527     0.686290025711     0.000000096745     
33.895000457764     0.681002020836     0.000000092988     
34.000000000000     0.675714015961     0.000000089780     
34.104999542236     0.670426011086     0.000000086741     
34.209999084473     0.665302991867     0.000000083322     
34.314998626709     0.660014986992     0.000000079945     
34.419998168945     0.654726982117     0.000000077328     
34.525001525879     0.649438977242     0.000000074627     
34.630001068115     0.644150972366     0.000000070912     
34.735000610352     0.638863027096     0.000000067873     
34.840000152588     0.633740007877     0.000000065509     
34.944999694824     0.628452003002     0.000000061795     
35.049999237061     0.623163998127     0.000000058840     
35.154998779297     0.617875993252     0.000000056477     
35.259998321533     0.612587988377     0.000000052931     
35.365001678467     0.607133984566     0.000000049428     
