
Cycle 1
Physical Cycle 1
Step 1

Time (s),          Potential (V),         Current (A)
0.104999996722     0.001983999973     -0.000000110546     
0.209999993443     0.007275000215     -0.000000095298     
0.314999997616     0.012400999665     -0.000000080050     
0.419999986887     0.017692999914     -0.000000068615     
0.449999988079     0.027778999880     -0.000000130527     
0.555000007153     0.033070001751     -0.000000120161     
0.660000026226     0.038361001760     -0.000000109796     
0.764999985695     0.043487001210     -0.000000100198     
0.795000016689     0.053739000112     -0.000000094005     
0.899999976158     0.058864999563     -0.000000086955     
1.004999995232     0.064156003296     -0.000000079065     
1.110000014305     0.069447003305     -0.000000071805     
1.215000033379     0.074738003314     -0.000000066517     
1.320000052452     0.080030001700     -0.000000061691     
1.424999952316     0.085156001151     -0.000000056403     
1.529999971390     0.090447001159     -0.000000051325     
1.634999990463     0.095738001168     -0.000000046373     
1.740000009537     0.101029001176     -0.000000041505     
1.845000028610     0.106320001185     -0.000000037350     
1.950000047684     0.111611999571     -0.000000034790     
2.055000066757     0.116737000644     -0.000000031349     
2.160000085831     0.122028999031     -0.000000027320     
2.265000104904     0.127320006490     -0.000000023543     
2.305000066757     0.137076005340     -0.000000019527     
2.410000085831     0.142201006413     -0.000000016281     
2.515000104904     0.147327005863     -0.000000014385     
2.619999885559     0.152619004250     -0.000000012150     
2.724999904633     0.158075004816     -0.000000009197     
2.829999923706     0.163201004267     -0.000000006782     
2.934999942780     0.168492004275     -0.000000004467     
3.039999961853     0.173618003726     -0.000000001434     
3.144999980927     0.178909003735     0.000000001099     
3.250000000000     0.184200003743     0.000000002872     
3.355000019073     0.189492002130     0.000000005833     
3.460000038147     0.194618001580     0.000000009414     
3.565000057220     0.199909001589     0.000000012188     
3.670000076294     0.205200001597     0.000000015083     
3.775000095367     0.210491001606     0.000000018856     
3.880000114441     0.215782001615     0.000000022407     
3.984999895096     0.220908001065     0.000000026035     
4.090000152588     0.226199001074     0.000000031089     
4.195000171661     0.231325000525     0.000000036502     
4.300000190735     0.236616998911     0.000000041331     
4.405000209808     0.241907998919     0.000000046821     
4.510000228882     0.247033998370     0.000000053626     
4.614999771118     0.252324998379     0.000000060660     
4.719999790192     0.257450997829     0.000000068411     
4.824999809265     0.262742012739     0.000000077494     
4.940000057220     0.274150997400     0.000000100888     
5.045000076294     0.279442012310     0.000000112722     
5.150000095367     0.284734010696     0.000000124893     
5.255000114441     0.290024995804     0.000000138238     
5.360000133514     0.295150995255     0.000000152297     
5.465000152588     0.300442010164     0.000000166943     
5.570000171661     0.305732995272     0.000000184024     
5.675000190735     0.311024010181     0.000000202447     
5.780000209808     0.316316008568     0.000000220576     
5.885000228882     0.321440994740     0.000000239294     
5.989999771118     0.326732993126     0.000000259312     
6.094999790192     0.332024008036     0.000000279791     
6.199999809265     0.337314993143     0.000000301698     
6.304999828339     0.342606008053     0.000000324947     
6.409999847412     0.347732007504     0.000000348155     
6.514999866486     0.353022992611     0.000000370355     
6.619999885559     0.358314990997     0.000000393059     
6.724999904633     0.363440006971     0.000000417190     
6.829999923706     0.368732005358     0.000000440733     
6.934999942780     0.374022990465     0.000000464067     
7.039999961853     0.379314005375     0.000000487064     
7.144999980927     0.384604990482     0.000000509642     
7.250000000000     0.389730989933     0.000000530248     
7.355000019073     0.395022004843     0.000000551651     
7.460000038147     0.400314003229     0.000000572886     
7.565000057220     0.405604988337     0.000000592694     
7.670000076294     0.410730987787     0.000000610278     
7.775000095367     0.416022002697     0.000000627485     
7.880000114441     0.421312987804     0.000000643390     
7.985000133514     0.426604002714     0.000000658918     
8.090000152588     0.431730002165     0.000000673774     
8.194999694824     0.437020987272     0.000000687581     
8.300000190735     0.442312985659     0.000000698912     
8.404999732971     0.447604000568     0.000000709613     
8.510000228882     0.452894985676     0.000000719769     
8.614999771118     0.458020985126     0.000000729002     
8.720000267029     0.463312000036     0.000000737731     
8.824999809265     0.468602985144     0.000000745830     
8.930000305176     0.473895013332     0.000000752923     
9.034999847412     0.479185998440     0.000000757959     
9.140000343323     0.484477013350     0.000000763750     
9.244999885559     0.489603012800     0.000000769877     
9.350000381470     0.494893997908     0.000000774913     
9.454999923706     0.500185012817     0.000000778774     
9.560000419617     0.505475997925     0.000000782887     
9.664999961853     0.510767996311     0.000000786412     
9.770000457764     0.515893995762     0.000000789266     
9.875000000000     0.521184980869     0.000000793085     
9.979999542236     0.526476025581     0.000000797072     
10.085000038147     0.531767010689     0.000000800009     
10.189999580383     0.537057995796     0.000000801856     
10.295000076294     0.542349994183     0.000000804752     
10.399999618530     0.547640979290     0.000000807060     
10.505000114441     0.552766978741     0.000000810249     
10.609999656677     0.558058023453     0.000000813397     
10.715000152588     0.563349008560     0.000000816334     
10.819999694824     0.568639993668     0.000000817971     
10.925000190735     0.573931992054     0.000000820489     
11.029999732971     0.579222977161     0.000000823804     
11.135000228882     0.584348976612     0.000000826742     
11.239999771118     0.589640021324     0.000000829638     
11.345000267029     0.594931006432     0.000000833205     
11.449999809265     0.600221991539     0.000000836226     
11.555000305176     0.605513989925     0.000000838619     
11.659999847412     0.610804975033     0.000000842479     
11.765000343323     0.616096019745     0.000000847222     
11.869999885559     0.621222019196     0.000000851167     
11.975000381470     0.626513004303     0.000000854272     
12.079999923706     0.631803989410     0.000000858679     
12.185000419617     0.637094974518     0.000000862414     
12.289999961853     0.642386972904     0.000000867072     
12.395000457764     0.647512972355     0.000000872402     
12.500000000000     0.652804017067     0.000000878025     
12.604999542236     0.658095002174     0.000000882432     
12.710000038147     0.663385987282     0.000000887006     
12.814999580383     0.668676972389     0.000000893007     
12.920000076294     0.673968970776     0.000000898925     
13.024999618530     0.679260015488     0.000000905513     
13.130000114441     0.684386014938     0.000000912186     
13.234999656677     0.689677000046     0.000000918481     
13.340000152588     0.694967985153     0.000000923979     
13.444999694824     0.700258970261     0.000000931449     
13.550000190735     0.705551028252     0.000000939213     
13.654999732971     0.710842013359     0.000000946808     
13.760000228882     0.716132998466     0.000000954069     
13.864999771118     0.721258997917     0.000000962462     
13.970000267029     0.726549983025     0.000000970016     
14.074999809265     0.731841027737     0.000000977696     
14.180000305176     0.737133026123     0.000000986970     
14.284999847412     0.742424011230     0.000000996833     
14.390000343323     0.747714996338     0.000001005226     
14.494999885559     0.752840995789     0.000001013116     
14.600000381470     0.758131980896     0.000001022516     
14.704999923706     0.763423025608     0.000001031455     
14.744999885559     0.773509979248     0.000001065328     
14.850000381470     0.778801023960     0.000001074158     
14.954999923706     0.784092009068     0.000001082604     
15.060000419617     0.789382994175     0.000001092201     
15.164999961853     0.794508993626     0.000001102183     
15.270000457764     0.799799978733     0.000001112548     
15.375000000000     0.805091977119     0.000001122146     
15.479999542236     0.810383021832     0.000001133279     
15.585000038147     0.815509021282     0.000001143260     
15.689999580383     0.820800006390     0.000001153242     
15.795000076294     0.826090991497     0.000001165143     
15.899999618530     0.831381976604     0.000001177044     
16.004999160767     0.836673974991     0.000001188561     
16.110000610352     0.841965019703     0.000001199310     
16.215000152588     0.847256004810     0.000001211979     
16.319999694824     0.852382004261     0.000001223880     
16.424999237061     0.857672989368     0.000001236164     
16.530000686646     0.862963974476     0.000001249985     
16.635000228882     0.868255019188     0.000001263421     
16.739999771118     0.873547017574     0.000001275706     
16.844999313354     0.878838002682     0.000001288759     
16.950000762939     0.884128987789     0.000001302579     
17.055000305176     0.889254987240     0.000001316784     
17.159999847412     0.894545972347     0.000001330604     
17.264999389648     0.899837017059     0.000001345193     
17.370000839233     0.905129015446     0.000001359397     
17.475000381470     0.910420000553     0.000001373217     
17.579999923706     0.915710985661     0.000001388574     
17.684999465942     0.920836985111     0.000001403546     
17.790000915527     0.926127970219     0.000001418134     
17.895000457764     0.931419014931     0.000001433106     
18.000000000000     0.936711013317     0.000001449230     
18.104999542236     0.942001998425     0.000001463818     
18.209999084473     0.947127997875     0.000001478791     
18.315000534058     0.952418982983     0.000001495298     
18.420000076294     0.957710027695     0.000001512190     
18.524999618530     0.963001012802     0.000001527162     
18.629999160767     0.968293011189     0.000001542902     
18.735000610352     0.973583996296     0.000001559410     
18.840000152588     0.978874981403     0.000001575918     
18.944999694824     0.984166026115     0.000001592042     
19.049999237061     0.989292025566     0.000001609701     
19.155000686646     0.994583010674     0.000001626977     
19.260000228882     0.999873995781     0.000001643101     
19.364999771118     1.005166053772     0.000001659992     
19.469999313354     1.010292053223     0.000001678036     
19.575000762939     1.015583038330     0.000001696463     
19.680000305176     1.020874023438     0.000001714506     
19.784999847412     1.026165008545     0.000001732934     
19.889999389648     1.031455993652     0.000001751361     
19.995000839233     1.036748051643     0.000001769788     
20.100000381470     1.042039036751     0.000001790135     
20.204999923706     1.047165036201     0.000001811634     
20.309999465942     1.052456021309     0.000001831596     
20.415000915527     1.057747006416     0.000001851943     
20.520000457764     1.063037991524     0.000001874210     
20.625000000000     1.068330049515     0.000001896476     
20.729999542236     1.073621034622     0.000001919126     
20.834999084473     1.078912019730     0.000001944080     
20.940000534058     1.084038019180     0.000001970185     
21.045000076294     1.089329004288     0.000001995139     
21.149999618530     1.094619989395     0.000002021244     
21.254999160767     1.099912047386     0.000002050037     
21.360000610352     1.105203032494     0.000002079597     
21.465000152588     1.110494017601     0.000002110309     
21.569999694824     1.115620017052     0.000002143325     
21.674999237061     1.120911002159     0.000002176340     
21.780000686646     1.126368045807     0.000002212043     
21.885000228882     1.131492972374     0.000002249282     
21.989999771118     1.136785030365     0.000002289208     
22.094999313354     1.141911029816     0.000002330669     
22.200000762939     1.147202014923     0.000002374050     
22.305000305176     1.152493000031     0.000002418967     
22.409999847412     1.157783985138     0.000002466954     
22.514999389648     1.163074970245     0.000002516862     
22.620000839233     1.168367028236     0.000002570608     
22.725000381470     1.173491954803     0.000002626657     
22.829999923706     1.178784012794     0.000002683475     
22.934999465942     1.184074997902     0.000002744131     
23.040000915527     1.189365983009     0.000002809395     
23.145000457764     1.194656968117     0.000002876962     
23.250000000000     1.197963953018     0.000002867364     
23.354999542236     1.193500041962     0.000002614757     
23.459999084473     1.188374042511     0.000002381344     
23.565000534058     1.183083057404     0.000002177108     
23.670000076294     1.177791953087     0.000001998594     
23.774999618530     1.172500014305     0.000001841962     
23.879999160767     1.167374968529     0.000001701454     
23.985000610352     1.162083029747     0.000001575150     
24.090000152588     1.156792044640     0.000001463051     
24.194999694824     1.151501059532     0.000001360549     
24.299999237061     1.146209955215     0.000001269180     
24.405000686646     1.141083955765     0.000001187025     
24.510000228882     1.135792970657     0.000001112548     
24.614999771118     1.130501031876     0.000001043830     
24.719999313354     1.125210046768     0.000000981637     
24.825000762939     1.119918942451     0.000000925204     
24.930000305176     1.114627957344     0.000000874145     
25.034999847412     1.109501957893     0.000000826925     
25.139999389648     1.104210972786     0.000000784312     
25.245000839233     1.098919034004     0.000000744386     
25.350000381470     1.093628048897     0.000000707147     
25.454999923706     1.088336944580     0.000000673748     
25.559999465942     1.083045959473     0.000000643420     
25.665000915527     1.077919960022     0.000000615395     
25.770000457764     1.072628974915     0.000000588138     
25.875000000000     1.067337036133     0.000000564336     
25.979999542236     1.062046051025     0.000000540534     
26.084999084473     1.056920051575     0.000000519419     
26.190000534058     1.051463961601     0.000000500992     
26.295000076294     1.046172976494     0.000000483333     
26.399999618530     1.041046977043     0.000000465289     
26.504999160767     1.035755991936     0.000000448398     
26.610000610352     1.030464053154     0.000000433809     
26.715000152588     1.025338053703     0.000000419989     
26.819999694824     1.020046949387     0.000000406552     
26.924999237061     1.014755964279     0.000000395035     
27.030000686646     1.009464979172     0.000000383134     
27.135000228882     1.004173994064     0.000000370849     
27.239999771118     0.998881995678     0.000000360868     
27.344999313354     0.993591010571     0.000000352038     
27.450000762939     0.988465011120     0.000000342057     
27.504999160767     0.979371011257     0.000000318233     
27.610000610352     0.974080026150     0.000000308790     
27.715000152588     0.968954026699     0.000000300649     
27.819999694824     0.963662981987     0.000000294396     
27.924999237061     0.958370983601     0.000000287094     
28.030000686646     0.953079998493     0.000000278322     
28.135000228882     0.947789013386     0.000000272279     
28.239999771118     0.942498028278     0.000000265145     
28.344999313354     0.937372028828     0.000000258346     
28.450000762939     0.932080984116     0.000000252597     
28.555000305176     0.926789999008     0.000000248149     
28.659999847412     0.921498000622     0.000000240972     
28.764999389648     0.916372001171     0.000000234635     
28.870000839233     0.911081016064     0.000000230145     
28.975000381470     0.905789971352     0.000000224186     
29.079999923706     0.900498986244     0.000000218310     
29.184999465942     0.895208001137     0.000000213568     
29.290000915527     0.889916002750     0.000000208448     
29.395000457764     0.884625017643     0.000000202279     
29.500000000000     0.879499018192     0.000000197914     
29.604999542236     0.874207973480     0.000000194347     
29.709999084473     0.868916988373     0.000000188346     
29.815000534058     0.863626003265     0.000000182681     
29.920000076294     0.858334004879     0.000000178652     
30.024999618530     0.853209018707     0.000000173574     
30.129999160767     0.847917020321     0.000000168118     
30.235000610352     0.842625975609     0.000000164047     
30.340000152588     0.837334990501     0.000000161110     
30.444999694824     0.832044005394     0.000000155109     
30.549999237061     0.826752007008     0.000000149821     
30.655000686646     0.821461021900     0.000000146044     
30.760000228882     0.816335022449     0.000000141260     
30.864999771118     0.811043977737     0.000000135762     
30.969999313354     0.805752992630     0.000000131943     
31.075000762939     0.800462007523     0.000000127536     
31.180000305176     0.795171022415     0.000000121283     
31.284999847412     0.790045022964     0.000000117087     
31.389999389648     0.784753024578     0.000000113729     
31.495000839233     0.779461979866     0.000000108358     
31.600000381470     0.774170994759     0.000000102860     
31.704999923706     0.768880009651     0.000000098915     
31.809999465942     0.763754010201     0.000000093502     
31.915000915527     0.758463025093     0.000000088172     
32.020000457764     0.753171980381     0.000000084605     
32.125000000000     0.747879981995     0.000000081247     
32.229999542236     0.742588996887     0.000000074994     
32.334999084473     0.737298011780     0.000000070168     
32.439998626709     0.732172012329     0.000000066559     
32.544998168945     0.726881027222     0.000000061985     
32.650001525879     0.721589982510     0.000000056193     
32.755001068115     0.716297984123     0.000000053046     
32.860000610352     0.711006999016     0.000000048471     
32.965000152588     0.705716013908     0.000000042974     
33.069999694824     0.700590014458     0.000000038735     
33.174999237061     0.695133984089     0.000000035881     
33.279998779297     0.690007984638     0.000000030887     
33.384998321533     0.684715986252     0.000000025684     
33.490001678467     0.679425001144     0.000000022158     
33.595001220703     0.674134016037     0.000000017584     
33.700000762939     0.668842971325     0.000000012674     
33.715000152588     0.658095002174     0.000000005478     
33.819999694824     0.652804017067     0.000000002006     
33.924999237061     0.647512972355     0.000000000080     
34.029998779297     0.642220973969     -0.000000000980     
34.134998321533     0.637094974518     -0.000000002861     
34.240001678467     0.631803989410     -0.000000003101     
34.345001220703     0.626513004303     -0.000000001129     
34.450000762939     0.621222019196     0.000000000385     
34.555000305176     0.615930974483     0.000000002174     
34.659999847412     0.610638976097     0.000000006660     
34.764999389648     0.605347990990     0.000000011421     
34.869998931885     0.600057005882     0.000000015457     
34.974998474121     0.594766020775     0.000000020523     
35.080001831055     0.589474976063     0.000000026489     
