
Cycle 1
Physical Cycle 1
Step 1

Time (s),          Potential (V),         Current (A)
0.104999996722     0.001818999997     -0.000000034307     
0.209999993443     0.007110000122     0.000000053367     
0.314999997616     0.012400999665     0.000000110546     
0.419999986887     0.017526999116     0.000000167724     
0.449999988079     0.027613999322     0.000000182353     
0.555000007153     0.032905001193     0.000000231493     
0.660000026226     0.038196001202     0.000000283320     
0.764999985695     0.043487001210     0.000000338602     
0.870000004768     0.048778001219     0.000000391580     
0.975000023842     0.053904000670     0.000000445326     
1.080000042915     0.059360999614     0.000000499073     
1.184999942780     0.064487002790     0.000000555506     
1.289999961853     0.069778002799     0.000000610788     
1.394999980927     0.075069002807     0.000000667989     
1.500000000000     0.080360002816     0.000000728262     
1.605000019073     0.085486002266     0.000000786615     
1.710000038147     0.090777002275     0.000000844584     
1.815000057220     0.096069000661     0.000000903321     
1.919999957085     0.101360000670     0.000000964362     
2.025000095367     0.106486000121     0.000001025786     
2.130000114441     0.111942000687     0.000001087978     
2.234999895096     0.117068000138     0.000001150554     
2.339999914169     0.122359000146     0.000001210443     
2.444999933243     0.127651005983     0.000001271867     
2.549999952316     0.132942005992     0.000001335979     
2.654999971390     0.138068005443     0.000001398939     
2.759999990463     0.143359005451     0.000001462283     
2.865000009537     0.148650005460     0.000001525627     
2.970000028610     0.153941005468     0.000001586667     
3.075000047684     0.159067004919     0.000001645404     
3.180000066757     0.164358004928     0.000001706444     
3.285000085831     0.169650003314     0.000001769788     
3.390000104904     0.174941003323     0.000001828909     
3.494999885559     0.180232003331     0.000001884575     
3.599999904633     0.185523003340     0.000001940241     
3.704999923706     0.190814003348     0.000001995523     
3.809999942780     0.196106001735     0.000002050421     
3.914999961853     0.201232001185     0.000002104935     
4.019999980927     0.206523001194     0.000002159833     
4.125000000000     0.211814001203     0.000002211276     
4.230000019073     0.217105001211     0.000002263102     
4.335000038147     0.222231000662     0.000002314161     
4.440000057220     0.227522000670     0.000002365220     
4.545000076294     0.232813999057     0.000002416663     
4.650000095367     0.238104999065     0.000002469258     
4.755000114441     0.243395999074     0.000002519165     
4.860000133514     0.248686999083     0.000002567153     
4.965000152588     0.253978013992     0.000002616676     
5.070000171661     0.259104013443     0.000002667351     
5.175000190735     0.264394998550     0.000002716107     
5.280000209808     0.269686996937     0.000002764478     
5.385000228882     0.274978011847     0.000002812466     
5.489999771118     0.280268996954     0.000002858534     
5.594999790192     0.285394996405     0.000002901147     
5.699999809265     0.290686011314     0.000002946448     
5.804999828339     0.295976996422     0.000002992900     
5.909999847412     0.301268994808     0.000003037433     
6.014999866486     0.306560009718     0.000003078894     
6.119999885559     0.311850994825     0.000003121507     
6.224999904633     0.317142009735     0.000003162969     
6.329999923706     0.322268009186     0.000003205582     
6.434999942780     0.327558994293     0.000003247043     
6.539999961853     0.332850992680     0.000003289272     
6.644999980927     0.338142007589     0.000003329966     
6.750000000000     0.343432992697     0.000003369892     
6.855000019073     0.348558992147     0.000003410585     
6.960000038147     0.353850007057     0.000003452047     
7.065000057220     0.359140992165     0.000003492740     
7.170000076294     0.364432990551     0.000003535354     
7.275000095367     0.369724005461     0.000003576047     
7.380000114441     0.375014990568     0.000003614437     
7.485000133514     0.380140990019     0.000003652828     
7.590000152588     0.385432004929     0.000003695057     
7.695000171661     0.390722990036     0.000003735750     
7.800000190735     0.396014004946     0.000003777212     
7.905000209808     0.401306003332     0.000003817521     
8.010000228882     0.406596988440     0.000003857447     
8.114999771118     0.411888003349     0.000003894686     
8.220000267029     0.417014002800     0.000003934612     
8.324999809265     0.422304987907     0.000003977993     
8.430000305176     0.427596002817     0.000004019838     
8.534999847412     0.432722002268     0.000004056692     
8.640000343323     0.438012987375     0.000004096234     
8.744999885559     0.443304985762     0.000004135776     
8.850000381470     0.448596000671     0.000004174934     
8.954999923706     0.453886985779     0.000004215244     
9.060000419617     0.459178000689     0.000004255938     
9.164999961853     0.464469999075     0.000004294328     
9.270000457764     0.469594985247     0.000004333486     
9.375000000000     0.474887013435     0.000004371876     
9.479999542236     0.480177998543     0.000004411418     
9.585000038147     0.485469013453     0.000004449040     
9.689999580383     0.490759998560     0.000004490502     
9.795000076294     0.496051996946     0.000004530044     
9.899999618530     0.501343011856     0.000004564979     
10.005000114441     0.506469011307     0.000004602601     
10.109999656677     0.511759996414     0.000004644830     
10.215000152588     0.517050981522     0.000004683988     
10.319999694824     0.522176980972     0.000004724682     
10.425000190735     0.527633011341     0.000004764608     
10.529999732971     0.532925009727     0.000004804150     
10.635000228882     0.538051009178     0.000004840620     
10.739999771118     0.543341994286     0.000004881698     
10.845000267029     0.548632979393     0.000004924311     
10.949999809265     0.553924024105     0.000004966924     
11.055000305176     0.559215009212     0.000005005314     
11.159999847412     0.564341008663     0.000005046008     
11.265000343323     0.569631993771     0.000005087085     
11.369999885559     0.574923992157     0.000005131234     
11.475000381470     0.580214977264     0.000005173847     
11.579999923706     0.585506021976     0.000005214925     
11.685000419617     0.590797007084     0.000005256770     
11.789999961853     0.595923006535     0.000005299767     
11.895000457764     0.601213991642     0.000005340845     
12.000000000000     0.606505990028     0.000005384609     
12.104999542236     0.611796975136     0.000005428374     
12.210000038147     0.617088019848     0.000005473675     
12.314999580383     0.622214019299     0.000005517056     
12.420000076294     0.627505004406     0.000005559285     
12.524999618530     0.632795989513     0.000005600362     
12.630000114441     0.638087987900     0.000005646431     
12.734999656677     0.643378973007     0.000005690963     
12.840000152588     0.648670017719     0.000005734728     
12.944999694824     0.653961002827     0.000005776957     
13.050000190735     0.659087002277     0.000005821106     
13.154999732971     0.664377987385     0.000005861800     
13.260000228882     0.669669985771     0.000005908252     
13.364999771118     0.674960970879     0.000005953552     
13.470000267029     0.680252015591     0.000005999237     
13.574999809265     0.685543000698     0.000006038778     
13.680000305176     0.690833985806     0.000006080624     
13.784999847412     0.696125984192     0.000006122853     
13.890000343323     0.701250970364     0.000006165850     
13.994999885559     0.706543028355     0.000006208847     
14.100000381470     0.711834013462     0.000006251076     
14.204999923706     0.717124998569     0.000006292538     
14.310000419617     0.722250998020     0.000006334767     
14.414999961853     0.727541983128     0.000006377764     
14.520000457764     0.732833027840     0.000006421145     
14.625000000000     0.738125026226     0.000006462990     
14.729999542236     0.743416011333     0.000006507523     
14.835000038147     0.748706996441     0.000006549368     
14.939999580383     0.753997981548     0.000006588910     
15.045000076294     0.759123980999     0.000006631523     
15.149999618530     0.764415025711     0.000006677975     
15.255000114441     0.769707024097     0.000006722124     
15.359999656677     0.774832010269     0.000006765121     
15.465000152588     0.780288994312     0.000006808886     
15.569999694824     0.785579979420     0.000006851883     
15.675000190735     0.790705978870     0.000006894112     
15.779999732971     0.795997023582     0.000006938645     
15.885000228882     0.801289021969     0.000006984329     
15.989999771118     0.806580007076     0.000007028862     
16.094999313354     0.811870992184     0.000007071091     
16.200000762939     0.816996991634     0.000007113704     
16.305000305176     0.822287976742     0.000007158237     
16.409999847412     0.827579021454     0.000007203921     
16.514999389648     0.832870006561     0.000007249605     
16.620000839233     0.838162004948     0.000007292986     
16.725000381470     0.843452990055     0.000007335216     
16.829999923706     0.848743975163     0.000007379748     
16.934999465942     0.853869974613     0.000007425049     
17.040000915527     0.859161019325     0.000007471117     
17.145000457764     0.864452004433     0.000007515266     
17.250000000000     0.869744002819     0.000007561334     
17.354999542236     0.875034987926     0.000007605099     
17.459999084473     0.880160987377     0.000007647328     
17.565000534058     0.885451972485     0.000007692244     
17.670000076294     0.890743017197     0.000007740616     
17.774999618530     0.896034002304     0.000007784381     
17.879999160767     0.901326000690     0.000007827378     
17.985000610352     0.906450986862     0.000007871911     
18.090000152588     0.911907970905     0.000007916827     
18.194999694824     0.917033970356     0.000007960208     
18.299999237061     0.922325015068     0.000008003973     
18.405000686646     0.927616000175     0.000008050425     
18.510000228882     0.932907998562     0.000008094958     
18.614999771118     0.938198983669     0.000008137571     
18.719999313354     0.943324983120     0.000008182103     
18.825000762939     0.948616027832     0.000008227788     
18.930000305176     0.953907012939     0.000008271936     
19.034999847412     0.959197998047     0.000008318005     
19.139999389648     0.964488983154     0.000008361386     
19.245000839233     0.969780981541     0.000008404766     
19.350000381470     0.974906980991     0.000008450451     
19.454999923706     0.980198025703     0.000008498439     
19.559999465942     0.985489010811     0.000008545275     
19.665000915527     0.990779995918     0.000008590575     
19.770000457764     0.996070981026     0.000008636259     
19.875000000000     1.001196980476     0.000008683095     
19.979999542236     1.006487965584     0.000008728780     
20.084999084473     1.011780023575     0.000008779071     
20.190000534058     1.017071008682     0.000008830514     
20.295000076294     1.022361993790     0.000008880421     
20.399999618530     1.027652978897     0.000008928409     
20.504999160767     1.032945036888     0.000008979084     
20.610000610352     1.038069963455     0.000009032830     
20.715000152588     1.043362021446     0.000009085809     
20.819999694824     1.048653006554     0.000009140323     
20.924999237061     1.053943991661     0.000009196756     
21.030000686646     1.059234976768     0.000009252806     
21.135000228882     1.064527034760     0.000009310391     
21.239999771118     1.069651961327     0.000009371432     
21.344999313354     1.074944019318     0.000009434392     
21.450000762939     1.080235004425     0.000009497735     
21.565000534058     1.091809034348     0.000009769951     
21.670000076294     1.097100973129     0.000009834754     
21.774999618530     1.102391958237     0.000009910992     
21.879999160767     1.107682943344     0.000009979607     
21.985000610352     1.112808942795     0.000010059657     
22.090000152588     1.118100047112     0.000010135895     
22.194999694824     1.123391032219     0.000010219758     
22.299999237061     1.128682971001     0.000010311244     
22.405000686646     1.133973956108     0.000010402730     
22.510000228882     1.139264941216     0.000010498028     
22.614999771118     1.144390940666     0.000010600950     
22.719999313354     1.149682044983     0.000010700059     
22.825000762939     1.154973030090     0.000010810605     
22.930000305176     1.160264015198     0.000010921151     
23.034999847412     1.165555953979     0.000011043132     
23.139999389648     1.170847058296     0.000011168926     
23.245000839233     1.176138043404     0.000011294719     
23.350000381470     1.181264042854     0.000011428136     
23.454999923706     1.186555027962     0.000011569177     
23.559999465942     1.191846013069     0.000011721654     
23.665000915527     1.197137951851     0.000011866507     
23.770000457764     1.196310997009     0.000011367145     
23.875000000000     1.191020011902     0.000010597138     
23.979999542236     1.185727953911     0.000009899556     
24.084999084473     1.180436968803     0.000009270589     
24.190000534058     1.175145983696     0.000008694990     
24.295000076294     1.170019984245     0.000008165133     
24.399999618530     1.164728999138     0.000007673395     
24.504999160767     1.159438014030     0.000007219776     
24.610000610352     1.154145956039     0.000006796653     
24.715000152588     1.148854970932     0.000006400214     
24.819999694824     1.143728971481     0.000006038081     
24.924999237061     1.138273000717     0.000005702632     
25.030000686646     1.133147001266     0.000005390055     
25.135000228882     1.127856016159     0.000005096537     
25.239999771118     1.122565031052     0.000004818267     
25.344999313354     1.117272973061     0.000004562868     
25.450000762939     1.112146973610     0.000004326529     
25.555000305176     1.106855988503     0.000004105438     
25.659999847412     1.101565003395     0.000003899594     
25.764999389648     1.096274018288     0.000003705186     
25.870000839233     1.090983033180     0.000003522214     
25.975000381470     1.085690975189     0.000003354490     
26.079999923706     1.080566048622     0.000003194389     
26.114999771118     1.070479035378     0.000002839723     
26.219999313354     1.065353035927     0.000002709964     
26.325000762939     1.059896945953     0.000002585580     
26.430000305176     1.054770946503     0.000002471177     
26.534999847412     1.049479961395     0.000002364836     
26.639999389648     1.044188022614     0.000002264638     
26.745000839233     1.039062976837     0.000002170198     
26.850000381470     1.033606052399     0.000002081901     
26.954999923706     1.028480052948     0.000001996674     
27.059999465942     1.023188948631     0.000001917207     
27.165000915527     1.017897963524     0.000001845801     
27.270000457764     1.012606024742     0.000001777850     
27.375000000000     1.007480978966     0.000001712587     
27.479999542236     1.002189040184     0.000001650011     
27.584999084473     0.996897995472     0.000001591274     
27.690000534058     0.991607010365     0.000001535992     
27.795000076294     0.986316025257     0.000001485317     
27.899999618530     0.981190025806     0.000001439249     
28.004999160767     0.975898981094     0.000001391645     
28.110000610352     0.970606982708     0.000001345960     
28.215000152588     0.965315997601     0.000001304883     
28.319999694824     0.960025012493     0.000001266877     
28.424999237061     0.954899013042     0.000001229254     
28.530000686646     0.949442982674     0.000001194703     
28.635000228882     0.944316983223     0.000001160920     
28.739999771118     0.939024984837     0.000001127136     
28.844999313354     0.933733999729     0.000001094121     
28.950000762939     0.928443014622     0.000001066480     
29.055000305176     0.923152029514     0.000001040374     
29.159999847412     0.917860984802     0.000001012733     
29.264999389648     0.912734985352     0.000000987012     
29.370000839233     0.907444000244     0.000000961291     
29.475000381470     0.902152001858     0.000000936337     
29.579999923706     0.897026002407     0.000000913687     
29.684999465942     0.891735017300     0.000000893340     
29.790000915527     0.886443972588     0.000000872225     
29.895000457764     0.881152987480     0.000000849191     
30.000000000000     0.875862002373     0.000000829612     
30.104999542236     0.870570003986     0.000000809265     
30.209999084473     0.865279018879     0.000000791222     
30.315000534058     0.859987974167     0.000000774330     
30.420000076294     0.854861974716     0.000000757823     
30.524999618530     0.849406003952     0.000000737092     
30.629999160767     0.844280004501     0.000000718665     
30.735000610352     0.838988006115     0.000000704076     
30.840000152588     0.833697021008     0.000000689104     
30.944999694824     0.828405976295     0.000000672596     
31.049999237061     0.823279976845     0.000000657624     
31.155000686646     0.817988991737     0.000000641116     
31.260000228882     0.812698006630     0.000000624225     
31.364999771118     0.807406008244     0.000000609252     
31.469999313354     0.802115023136     0.000000596200     
31.575000762939     0.796823978424     0.000000581995     
31.680000305176     0.791697978973     0.000000566255     
31.784999847412     0.786242008209     0.000000551283     
31.889999389648     0.781116008759     0.000000535927     
31.995000839233     0.775825023651     0.000000520571     
32.099998474121     0.770533025265     0.000000507902     
32.205001831055     0.765241980553     0.000000494082     
32.310001373291     0.759950995445     0.000000478342     
32.415000915527     0.754824995995     0.000000462602     
32.520000457764     0.749534010887     0.000000448781     
32.625000000000     0.744243025780     0.000000433809     
32.729999542236     0.738951027393     0.000000419605     
32.834999084473     0.733659982681     0.000000405017     
32.939998626709     0.728368997574     0.000000389661     
33.044998168945     0.723242998123     0.000000372385     
33.150001525879     0.717952013016     0.000000356645     
33.255001068115     0.712661027908     0.000000343976     
33.360000610352     0.707369029522     0.000000330156     
33.465000152588     0.702077984810     0.000000312880     
33.560001373291     0.695133984089     0.000000279120     
33.665000915527     0.690007984638     0.000000264767     
33.770000457764     0.684715986252     0.000000251925     
33.875000000000     0.679425001144     0.000000235936     
33.979999542236     0.674134016037     0.000000219863     
34.084999084473     0.668842971325     0.000000202573     
34.189998626709     0.663551986217     0.000000186877     
34.294998168945     0.658259987831     0.000000168286     
34.400001525879     0.653133988380     0.000000153094     
34.505001068115     0.647843003273     0.000000137776     
34.610000610352     0.642552018166     0.000000120780     
34.715000152588     0.637260973454     0.000000101685     
34.819999694824     0.631969988346     0.000000084017     
34.924999237061     0.626677989960     0.000000066937     
35.029998779297     0.621553003788     0.000000048220     
35.134998321533     0.616261005402     0.000000030426     
35.240001678467     0.610970020294     0.000000013891     
35.345001220703     0.605844020844     -0.000000006127     
35.450000762939     0.600552976131     -0.000000025264     
