
Cycle 1
Physical Cycle 1
Step 1

Time (s),          Potential (V),         Current (A)
0.104999996722     0.002641000086     -0.000004481622     
0.209999993443     0.007922000252     -0.000004168329     
0.314999997616     0.013203999959     -0.000003885601     
0.419999986887     0.018485000357     -0.000003614335     
0.524999976158     0.023765999824     -0.000003354531     
0.629999995232     0.029047999531     -0.000003106188     
0.735000014305     0.034329000860     -0.000002869308     
0.790000021458     0.043242000043     -0.000002474653     
0.894999980927     0.048358000815     -0.000002265002     
1.000000000000     0.053640000522     -0.000002064968     
1.105000019073     0.058921001852     -0.000001873012     
1.210000038147     0.064202003181     -0.000001688750     
1.315000057220     0.069319002330     -0.000001510642     
1.419999957085     0.074600003660     -0.000001337921     
1.524999976158     0.079882003367     -0.000001171738     
1.629999995232     0.085162997246     -0.000001010942     
1.735000014305     0.090444996953     -0.000000851299     
1.840000033379     0.095725998282     -0.000000694734     
1.945000052452     0.101006999612     -0.000000543170     
2.049999952316     0.106123998761     -0.000000390451     
2.154999971390     0.111405000091     -0.000000238118     
2.259999990463     0.116686999798     -0.000000090015     
2.365000009537     0.121968001127     0.000000059241     
2.470000028610     0.127250000834     0.000000209651     
2.539999961853     0.134841993451     0.000000430216     
2.644999980927     0.140122994781     0.000000581755     
2.750000000000     0.145239993930     0.000000733546     
2.855000019073     0.150520995259     0.000000891186     
2.910000085831     0.159762993455     0.000001189818     
3.015000104904     0.165044993162     0.000001358309     
3.119999885559     0.170160993934     0.000001534493     
3.224999904633     0.175442993641     0.000001719909     
3.329999923706     0.180723994970     0.000001909556     
3.434999942780     0.186005994678     0.000002106898     
3.539999961853     0.191286996007     0.000002312702     
3.644999980927     0.196567997336     0.000002522353     
3.750000000000     0.201684996486     0.000002738544     
3.855000019073     0.206965997815     0.000002960120     
3.960000038147     0.212247997522     0.000003185543     
4.065000057220     0.217528998852     0.000003416352     
4.170000076294     0.222810998559     0.000003652931     
4.275000095367     0.227926999331     0.000003895280     
4.380000114441     0.233208000660     0.000004138783     
4.485000133514     0.238490000367     0.000004385748     
4.590000152588     0.243771001697     0.000004636175     
4.695000171661     0.249053001404     0.000004890450     
4.800000190735     0.254334002733     0.000005142031     
4.905000209808     0.259451001883     0.000005397459     
5.010000228882     0.264732003212     0.000005656349     
5.114999771118     0.270013004541     0.000005914855     
5.219999790192     0.275294989347     0.000006173745     
5.324999809265     0.280575990677     0.000006434174     
5.429999828339     0.285692989826     0.000006692680     
5.534999847412     0.290973991156     0.000006952340     
5.639999866486     0.296256005764     0.000007208922     
5.744999885559     0.301371991634     0.000007468582     
5.849999904633     0.306652992964     0.000007726703     
5.954999923706     0.311935007572     0.000007985208     
6.059999942780     0.317216008902     0.000008240636     
6.164999961853     0.322497993708     0.000008497988     
6.269999980927     0.327614009380     0.000008755340     
6.375000000000     0.332895994186     0.000009010383     
6.480000019073     0.338176995516     0.000009260810     
6.594999790192     0.349730014801     0.000009830532     
6.699999809265     0.355011999607     0.000010071233     
6.804999828339     0.360293000937     0.000010315755     
6.909999847412     0.365574002266     0.000010564097     
7.014999866486     0.370855987072     0.000010808619     
7.119999885559     0.376136988401     0.000011049320     
7.224999904633     0.381253987551     0.000011286200     
7.329999923706     0.386534988880     0.000011526901     
7.434999942780     0.391817003489     0.000011759961     
7.539999961853     0.397098004818     0.000012000662     
7.644999980927     0.402379006147     0.000012241363     
7.750000000000     0.407660990953     0.000012482064     
7.855000019073     0.412941992283     0.000012718944     
7.960000038147     0.418058991432     0.000012963465     
8.064999580383     0.423505008221     0.000013200346     
8.170000076294     0.428622007370     0.000013437226     
8.274999618530     0.434067994356     0.000013670286     
8.380000114441     0.439184010029     0.000013903345     
8.484999656677     0.444465994835     0.000014124943     
8.590000152588     0.449746996164     0.000014346541     
8.694999694824     0.455029010773     0.000014556676     
8.800000190735     0.460310012102     0.000014762992     
8.904999732971     0.465591996908     0.000014950203     
9.010000228882     0.470872998238     0.000015133595     
9.114999771118     0.476155012846     0.000015305524     
9.220000267029     0.481270998716     0.000015473632     
9.324999809265     0.486552000046     0.000015637919     
9.430000305176     0.491834014654     0.000015790745     
9.534999847412     0.497114986181     0.000015939751     
9.640000343323     0.502397000790     0.000016081116     
9.744999885559     0.507677972317     0.000016211017     
9.850000381470     0.512960016727     0.000016333279     
9.954999923706     0.518240988255     0.000016455540     
10.060000419617     0.523522019386     0.000016577800     
10.164999961853     0.528804004192     0.000016692420     
10.270000457764     0.533919990063     0.000016814682     
10.375000000000     0.539201974869     0.000016940761     
10.479999542236     0.544647991657     0.000017078306     
10.585000038147     0.549764990807     0.000017219671     
10.689999580383     0.555046021938     0.000017368675     
10.795000076294     0.560326993465     0.000017529142     
10.899999618530     0.565608978271     0.000017701072     
11.005000114441     0.570725023746     0.000017884464     
11.109999656677     0.576171994209     0.000018067854     
11.215000152588     0.581453025341     0.000018266528     
11.319999694824     0.586735010147     0.000018476663     
11.425000190735     0.592015981674     0.000018686798     
11.529999732971     0.597132027149     0.000018904577     
11.635000228882     0.602414011955     0.000019122353     
11.739999771118     0.607694983482     0.000019343952     
11.845000267029     0.612977027893     0.000019565548     
11.949999809265     0.618257999420     0.000019787147     
12.055000305176     0.623539984226     0.000020016385     
12.159999847412     0.628821015358     0.000020237983     
12.265000343323     0.634103000164     0.000020467221     
12.369999885559     0.639383971691     0.000020696461     
12.475000381470     0.644500017166     0.000020910416     
12.579999923706     0.649782001972     0.000021139656     
12.685000419617     0.655062973499     0.000021361255     
12.789999961853     0.660345017910     0.000021590493     
12.895000457764     0.665625989437     0.000021812091     
13.000000000000     0.670907974243     0.000022029868     
13.104999542236     0.676189005375     0.000022247645     
13.210000038147     0.681469976902     0.000022469243     
13.314999580383     0.686752021313     0.000022687020     
13.420000076294     0.692032992840     0.000022912438     
13.524999618530     0.697149991989     0.000023126395     
13.630000114441     0.702431023121     0.000023332710     
13.734999656677     0.707713007927     0.000023554307     
13.840000152588     0.712993979454     0.000023768263     
13.944999694824     0.718275010586     0.000023970759     
14.050000190735     0.723556995392     0.000024184714     
14.154999732971     0.728838026524     0.000024387209     
14.260000228882     0.734120011330     0.000024593524     
14.364999771118     0.739400982857     0.000024803659     
14.470000267029     0.744683027267     0.000025006155     
14.574999809265     0.749963998795     0.000025216290     
14.680000305176     0.755079984665     0.000025418783     
14.784999847412     0.760362029076     0.000025625101     
14.890000343323     0.765643000603     0.000025823772     
14.994999885559     0.770924985409     0.000026010985     
15.100000381470     0.776206016541     0.000026202018     
15.204999923706     0.781488001347     0.000026412154     
15.310000419617     0.786603987217     0.000026599366     
15.414999961853     0.792050004005     0.000026782756     
15.520000457764     0.797331988811     0.000026973788     
15.625000000000     0.802447974682     0.000027164822     
15.729999542236     0.807730019093     0.000027352033     
15.835000038147     0.813010990620     0.000027558348     
15.939999580383     0.818292975426     0.000027757022     
16.045000076294     0.823574006557     0.000027940412     
16.149999618530     0.828854978085     0.000028116163     
16.254999160767     0.834137022495     0.000028295734     
16.360000610352     0.839417994022     0.000028479126     
16.465000152588     0.844699978828     0.000028689261     
16.569999694824     0.849981009960     0.000028876473     
16.674999237061     0.855262994766     0.000029056044     
16.780000686646     0.860378980637     0.000029243254     
16.885000228882     0.865661025047     0.000029445750     
16.989999771118     0.870941996574     0.000029648245     
17.094999313354     0.876223027706     0.000029835455     
17.200000762939     0.881505012512     0.000030026487     
17.305000305176     0.886785984039     0.000030221341     
17.409999847412     0.892068028450     0.000030412373     
17.514999389648     0.897184014320     0.000030607225     
17.620000839233     0.902465999126     0.000030809722     
17.725000381470     0.907746970654     0.000030989293     
17.829999923706     0.913028001785     0.000031203250     
17.934999465942     0.918309986591     0.000031390460     
18.040000915527     0.923591017723     0.000031581494     
18.145000457764     0.928873002529     0.000031799271     
18.250000000000     0.934153974056     0.000031982661     
18.354999542236     0.939436018467     0.000032204258     
18.459999084473     0.944716989994     0.000032402932     
18.565000534058     0.949998021126     0.000032601605     
18.670000076294     0.955115020275     0.000032811742     
18.774999618530     0.960395991802     0.000033010416     
18.879999160767     0.965843021870     0.000033224373     
18.985000610352     0.970959007740     0.000033430690     
19.090000152588     0.976240992546     0.000033644643     
19.194999694824     0.981522023678     0.000033854780     
19.299999237061     0.986802995205     0.000034080196     
19.405000686646     0.992084980011     0.000034294153     
19.510000228882     0.997366011143     0.000034527213     
19.614999771118     1.002483010292     0.000034760273     
19.719999313354     1.007763981819     0.000034981869     
19.825000762939     1.013046026230     0.000035203469     
19.930000305176     1.018326997757     0.000035436529     
20.034999847412     1.023607969284     0.000035661946     
20.139999389648     1.028890013695     0.000035929392     
20.245000839233     1.034170985222     0.000036158632     
20.350000381470     1.039453029633     0.000036399331     
20.454999923706     1.044569015503     0.000036651494     
20.559999465942     1.049850940704     0.000036899837     
20.665000915527     1.055132031441     0.000037163463     
20.770000457764     1.060413002968     0.000037423266     
20.875000000000     1.065695047379     0.000037694532     
20.979999542236     1.070976018906     0.000037969621     
21.084999084473     1.076092958450     0.000038248527     
21.190000534058     1.081539034843     0.000038531256     
21.295000076294     1.086820960045     0.000038825445     
21.399999618530     1.091936945915     0.000039111994     
21.504999160767     1.097218036652     0.000039402363     
21.610000610352     1.102499961853     0.000039708015     
21.715000152588     1.107781052589     0.000040021310     
21.819999694824     1.113062977791     0.000040349885     
21.924999237061     1.118343949318     0.000040678460     
22.030000686646     1.123625993729     0.000041018498     
22.135000228882     1.128906965256     0.000041347073     
22.239999771118     1.134024024010     0.000041713858     
22.344999313354     1.139304995537     0.000042084459     
22.450000762939     1.144585967064     0.000042451244     
22.555000305176     1.149868011475     0.000042821845     
22.659999847412     1.155148983002     0.000043219192     
22.764999389648     1.160431027412     0.000043605080     
22.870000839233     1.165711998940     0.000044025350     
22.975000381470     1.170994043350     0.000044460903     
23.079999923706     1.176110029221     0.000044911740     
23.184999465942     1.181555986404     0.000045339653     
23.290000915527     1.186838030815     0.000045813413     
23.395000457764     1.191954016685     0.000046352125     
23.500000000000     1.197401046753     0.000046848811     
23.604999542236     1.196905970573     0.000046378871     
23.709999084473     1.191624045372     0.000045293807     
23.815000534058     1.186508059502     0.000044281333     
23.920000076294     1.181226015091     0.000043291784     
24.024999618530     1.175945043564     0.000042382471     
24.129999160767     1.170662999153     0.000041522824     
24.235000610352     1.165382027626     0.000040735769     
24.340000152588     1.160101056099     0.000039971641     
24.444999694824     1.154819011688     0.000039249539     
24.549999237061     1.149538040161     0.000038557999     
24.655000686646     1.144255995750     0.000037897025     
24.760000228882     1.139140009880     0.000037266622     
24.864999771118     1.133857965469     0.000036659138     
24.969999313354     1.128576993942     0.000036078400     
25.075000762939     1.123296022415     0.000035520585     
25.180000305176     1.118013978004     0.000034989513     
25.284999847412     1.112733006477     0.000034477547     
25.389999389648     1.107450962067     0.000033984681     
25.495000839233     1.102334976196     0.000033510922     
25.600000381470     1.097053050995     0.000033060085     
25.704999923706     1.091771960258     0.000032616888     
25.809999465942     1.086490988731     0.000032204258     
25.915000915527     1.081208944321     0.000031791627     
26.020000457764     1.075927972794     0.000031378997     
26.125000000000     1.070646047592     0.000030981650     
26.229999542236     1.065364956856     0.000030603405     
26.334999084473     1.060083031654     0.000030228983     
26.440000534058     1.054801940918     0.000029869841     
26.545000076294     1.049520969391     0.000029525983     
26.649999618530     1.044404029846     0.000029170664     
26.754999160767     1.039123058319     0.000028830626     
26.860000610352     1.033841013908     0.000028505870     
26.965000152588     1.028560042381     0.000028188755     
27.069999694824     1.023277997971     0.000027864000     
27.174999237061     1.017997026443     0.000027546886     
27.280000686646     1.012716054916     0.000027245054     
27.385000228882     1.007598996162     0.000026939402     
27.489999771118     1.002318024635     0.000026641392     
27.594999313354     0.997035980225     0.000026347201     
27.700000762939     0.991755008698     0.000026049192     
27.805000305176     0.986473023891     0.000025766463     
27.909999847412     0.981191992760     0.000025487556     
28.014999389648     0.975910007954     0.000025208648     
28.120000839233     0.970794022083     0.000024941202     
28.225000381470     0.965348005295     0.000024658475     
28.329999923706     0.960231006145     0.000024394851     
28.434999465942     0.954949975014     0.000024115943     
28.540000915527     0.949667990208     0.000023856139     
28.645000457764     0.944387018681     0.000023607796     
28.750000000000     0.939104974270     0.000023351813     
28.854999542236     0.933824002743     0.000023095829     
28.959999084473     0.928542971611     0.000022847487     
29.065000534058     0.923425972462     0.000022595324     
29.170000076294     0.918145000935     0.000022343162     
29.274999618530     0.912863016129     0.000022113922     
29.379999160767     0.907581984997     0.000021861759     
29.485000610352     0.902300000191     0.000021613418     
29.590000152588     0.897019028664     0.000021372716     
29.694999694824     0.891737997532     0.000021132015     
29.799999237061     0.886456012726     0.000020902777     
29.905000686646     0.881340026855     0.000020662075     
30.010000228882     0.875892996788     0.000020421374     
30.114999771118     0.870612025261     0.000020176853     
30.219999313354     0.865495026112     0.000019939973     
30.325000762939     0.860213994980     0.000019710733     
30.430000305176     0.854933023453     0.000019466212     
30.534999847412     0.849650979042     0.000019244613     
30.639999389648     0.844370007515     0.000019007733     
30.745000839233     0.839088022709     0.000018774674     
30.850000381470     0.833806991577     0.000018549255     
30.954999923706     0.828525006771     0.000018323837     
31.059999465942     0.823243975639     0.000018102241     
31.165000915527     0.817963004112     0.000017895925     
31.270000457764     0.812846004963     0.000017685788     
31.375000000000     0.807564973831     0.000017475653     
31.479999542236     0.802282989025     0.000017254055     
31.584999084473     0.797002017498     0.000017047740     
31.690000534058     0.791885018349     0.000016833785     
31.795000076294     0.786439001560     0.000016623648     
31.899999618530     0.781157970428     0.000016409693     
32.005001068115     0.775875985622     0.000016195734     
32.110000610352     0.770759999752     0.000015977957     
32.215000152588     0.765478014946     0.000015760181     
32.319999694824     0.760196983814     0.000015550046     
32.424999237061     0.754914999008     0.000015339911     
32.529998779297     0.749634027481     0.000015118312     
32.634998321533     0.744517982006     0.000014889073     
32.740001678467     0.739071011543     0.000014667475     
32.845001220703     0.733789980412     0.000014461160     
32.950000762939     0.728507995605     0.000014251024     
33.055000305176     0.723392009735     0.000014056171     
33.159999847412     0.717944979668     0.000013849856     
33.264999389648     0.712828993797     0.000013647362     
33.369998931885     0.707547008991     0.000013421943     
33.474998474121     0.702265977859     0.000013211808     
33.580001831055     0.696985006332     0.000013013134     
33.685001373291     0.691703021526     0.000012814460     
33.790000915527     0.686421990395     0.000012615786     
33.895000457764     0.681140005589     0.000012447678     
34.000000000000     0.675858974457     0.000012268107     
34.104999542236     0.670576989651     0.000012103819     
34.209999084473     0.665296018124     0.000011950993     
34.314998626709     0.660179972649     0.000011805808     
34.419998168945     0.654733002186     0.000011637700     
34.525001525879     0.649617016315     0.000011446667     
34.630001068115     0.644334971905     0.000011290021     
34.735000610352     0.639054000378     0.000011102809     
34.840000152588     0.633772015572     0.000010976727     
34.944999694824     0.628656029701     0.000010812440     
35.049999237061     0.623210012913     0.000010697820     
35.154998779297     0.617928028107     0.000010575559     
35.259998321533     0.612646996975     0.000010418913     
35.365001678467     0.607365012169     0.000010246983     
