
Cycle 1
Physical Cycle 1
Step 1

Time (s),          Potential (V),         Current (A)
0.104999996722     0.001818999997     -0.000000057179     
0.209999993443     0.007110000122     -0.000000045743     
0.314999997616     0.012400999665     -0.000000034307     
0.419999986887     0.017692999914     -0.000000022872     
0.449999988079     0.027778999880     -0.000000090217     
0.555000007153     0.032905001193     -0.000000081771     
0.660000026226     0.038361001760     -0.000000075245     
0.764999985695     0.043487001210     -0.000000067951     
0.795000016689     0.053573999554     -0.000000063370     
0.899999976158     0.058864999563     -0.000000057117     
1.004999995232     0.064156003296     -0.000000052458     
1.110000014305     0.069282002747     -0.000000048220     
1.215000033379     0.074573002756     -0.000000043184     
1.320000052452     0.079864002764     -0.000000038567     
1.424999952316     0.085156001151     -0.000000034706     
1.529999971390     0.090447001159     -0.000000030636     
1.634999990463     0.095738001168     -0.000000027152     
1.740000009537     0.101029001176     -0.000000024886     
1.845000028610     0.106320001185     -0.000000021571     
1.894999980927     0.115414999425     -0.000000017383     
2.000000000000     0.120540998876     -0.000000014030     
2.105000019073     0.125832006335     -0.000000011982     
2.210000038147     0.131123006344     -0.000000010044     
2.315000057220     0.136249005795     -0.000000007511     
2.420000076294     0.141540005803     -0.000000005470     
2.525000095367     0.146831005812     -0.000000003590     
2.630000114441     0.152122005820     -0.000000000767     
2.734999895096     0.157248005271     0.000000001659     
2.839999914169     0.162540003657     0.000000002880     
2.944999933243     0.167831003666     0.000000004681     
3.049999952316     0.173122003675     0.000000007439     
3.154999971390     0.178413003683     0.000000009571     
3.259999990463     0.183539003134     0.000000011516     
3.365000009537     0.188830003142     0.000000014309     
3.470000028610     0.194121003151     0.000000016704     
3.575000047684     0.199413001537     0.000000018394     
3.680000066757     0.204539000988     0.000000021438     
3.785000085831     0.209830000997     0.000000024940     
3.890000104904     0.215121001005     0.000000027622     
3.994999885559     0.220412001014     0.000000030181     
4.099999904633     0.225538000464     0.000000033855     
4.204999923706     0.230829000473     0.000000037212     
4.309999942780     0.235954999924     0.000000040721     
4.414999961853     0.241245999932     0.000000045211     
4.519999980927     0.246537998319     0.000000049926     
4.625000000000     0.251828998327     0.000000053714     
4.730000019073     0.256954997778     0.000000058200     
4.835000038147     0.262246012688     0.000000063773     
4.940000057220     0.267372012138     0.000000069106     
5.045000076294     0.272662997246     0.000000074496     
5.150000095367     0.277954012156     0.000000080916     
5.255000114441     0.283080011606     0.000000087134     
5.335000038147     0.291182011366     0.000000098663     
5.440000057220     0.296472996473     0.000000106134     
5.545000076294     0.301764994860     0.000000112806     
5.650000095367     0.307056009769     0.000000119269     
5.755000114441     0.312182009220     0.000000126991     
5.860000133514     0.317472994328     0.000000134545     
5.965000152588     0.322764009237     0.000000142393     
6.070000171661     0.328054994345     0.000000150618     
6.175000190735     0.333180993795     0.000000158844     
6.280000209808     0.338472008705     0.000000165810     
6.385000228882     0.343764007092     0.000000173364     
6.489999771118     0.349054992199     0.000000181925     
6.594999790192     0.354346007109     0.000000189857     
6.699999809265     0.359636992216     0.000000197117     
6.804999828339     0.364762991667     0.000000204923     
6.909999847412     0.370054006577     0.000000211973     
7.014999866486     0.375346004963     0.000000218226     
7.119999885559     0.380636990070     0.000000225780     
7.224999904633     0.385928004980     0.000000233334     
7.329999923706     0.391218990088     0.000000239377     
7.434999942780     0.396344989538     0.000000244791     
7.539999961853     0.401636004448     0.000000251044     
7.644999980927     0.406928002834     0.000000256584     
7.750000000000     0.412218987942     0.000000261997     
7.855000019073     0.417510002851     0.000000267789     
7.960000038147     0.422800987959     0.000000273328     
8.064999580383     0.428092002869     0.000000277525     
8.170000076294     0.433218002319     0.000000281680     
8.274999618530     0.438510000706     0.000000286968     
8.380000114441     0.443800985813     0.000000291794     
8.484999656677     0.449092000723     0.000000295865     
8.590000152588     0.454218000174     0.000000300439     
8.694999694824     0.459508985281     0.000000304594     
8.800000190735     0.464800000191     0.000000307951     
8.904999732971     0.470090985298     0.000000312651     
9.010000228882     0.475383013487     0.000000317519     
9.114999771118     0.480673998594     0.000000321464     
9.220000267029     0.485799998045     0.000000324821     
9.324999809265     0.491091012955     0.000000329228     
9.430000305176     0.496381998062     0.000000333089     
9.534999847412     0.501672983170     0.000000337160     
9.640000343323     0.506964981556     0.000000341860     
9.744999885559     0.512256026268     0.000000346686     
9.850000381470     0.517382025719     0.000000350001     
9.954999923706     0.522673010826     0.000000353778     
10.060000419617     0.527963995934     0.000000358437     
10.164999961853     0.533254981041     0.000000363053     
10.270000457764     0.538546979427     0.000000366956     
10.375000000000     0.543838024139     0.000000371782     
10.479999542236     0.548964023590     0.000000375979     
10.585000038147     0.554255008698     0.000000379756     
10.689999580383     0.559545993805     0.000000384708     
10.795000076294     0.564836978912     0.000000390247     
10.899999618530     0.570128977299     0.000000394612     
11.005000114441     0.575420022011     0.000000398683     
11.109999656677     0.580546021461     0.000000403761     
11.215000152588     0.585837006569     0.000000408461     
11.319999694824     0.591127991676     0.000000413413     
11.425000190735     0.596418976784     0.000000419246     
11.529999732971     0.601544976234     0.000000424618     
11.635000228882     0.606836020947     0.000000429318     
11.739999771118     0.612293004990     0.000000434354     
11.845000267029     0.617419004440     0.000000440188     
11.949999809265     0.622709989548     0.000000445895     
12.055000305176     0.628000974655     0.000000450763     
12.159999847412     0.633126974106     0.000000456387     
12.265000343323     0.638418018818     0.000000461717     
12.369999885559     0.643709003925     0.000000466039     
12.475000381470     0.649001002312     0.000000471621     
12.579999923706     0.654291987419     0.000000477412     
12.685000419617     0.659582972527     0.000000482322     
12.789999961853     0.664874017239     0.000000486393     
12.895000457764     0.670166015625     0.000000491849     
13.000000000000     0.675457000732     0.000000496087     
13.104999542236     0.680747985840     0.000000500871     
13.210000038147     0.685873985291     0.000000505865     
13.314999580383     0.691164970398     0.000000510943     
13.420000076294     0.696456015110     0.000000514594     
13.524999618530     0.701748013496     0.000000518497     
13.630000114441     0.707038998604     0.000000523240     
13.734999656677     0.712164998055     0.000000527730     
13.840000152588     0.717455983162     0.000000531927     
13.944999694824     0.722747027874     0.000000536585     
14.050000190735     0.728038012981     0.000000540698     
14.154999732971     0.733328998089     0.000000544307     
14.260000228882     0.738620996475     0.000000548923     
14.364999771118     0.743746995926     0.000000554379     
14.470000267029     0.749037981033     0.000000558575     
14.574999809265     0.754329025745     0.000000562352     
14.680000305176     0.759620010853     0.000000567179     
14.784999847412     0.764746010303     0.000000571837     
14.890000343323     0.770036995411     0.000000576621     
14.994999885559     0.775327980518     0.000000582077     
15.100000381470     0.780619978905     0.000000587910     
15.204999923706     0.785911023617     0.000000592610     
15.310000419617     0.791202008724     0.000000597437     
15.414999961853     0.796492993832     0.000000603648     
15.520000457764     0.801618993282     0.000000609481     
15.625000000000     0.806909978390     0.000000615314     
15.729999542236     0.812201976776     0.000000621693     
15.835000038147     0.817493021488     0.000000627988     
15.939999580383     0.822784006596     0.000000633360     
16.045000076294     0.828074991703     0.000000640242     
16.149999618530     0.833366990089     0.000000647713     
16.254999160767     0.838491976261     0.000000654217     
16.360000610352     0.843783974648     0.000000660512     
16.465000152588     0.848909020424     0.000000667856     
16.569999694824     0.854201018810     0.000000674697     
16.674999237061     0.859656989574     0.000000681160     
16.780000686646     0.864782989025     0.000000688756     
16.885000228882     0.870073974133     0.000000696897     
16.989999771118     0.875365972519     0.000000703528     
17.094999313354     0.880657017231     0.000000710495     
17.200000762939     0.885783016682     0.000000718552     
17.305000305176     0.891074001789     0.000000726526     
17.409999847412     0.896364986897     0.000000734499     
17.514999389648     0.901655972004     0.000000742557     
17.620000839233     0.906947016716     0.000000750741     
17.725000381470     0.912239015102     0.000000757875     
17.829999923706     0.917365014553     0.000000766310     
17.934999465942     0.922655999660     0.000000775291     
18.040000915527     0.927946984768     0.000000783558     
18.145000457764     0.933238029480     0.000000791532     
18.250000000000     0.938529014587     0.000000800597     
18.354999542236     0.943655014038     0.000000808864     
18.459999084473     0.948947012424     0.000000817467     
18.565000534058     0.954237997532     0.000000827120     
18.670000076294     0.959528982639     0.000000836940     
18.774999618530     0.964820027351     0.000000845417     
18.879999160767     0.970111012459     0.000000854188     
18.985000610352     0.975403010845     0.000000864386     
19.090000152588     0.980527997017     0.000000874290     
19.194999694824     0.985819995403     0.000000884446     
19.299999237061     0.991110980511     0.000000895315     
19.405000686646     0.996402025223     0.000000906437     
19.510000228882     1.001693010330     0.000000916467     
19.614999771118     1.006819009781     0.000000927546     
19.719999313354     1.012109994888     0.000000940430     
19.825000762939     1.017402052879     0.000000953020     
19.930000305176     1.022693037987     0.000000965442     
20.034999847412     1.027819037437     0.000000978871     
20.139999389648     1.033110022545     0.000000992426     
20.245000839233     1.038401007652     0.000001006359     
20.350000381470     1.043691992760     0.000001021803     
20.379999160767     1.054275035858     0.000001067248     
20.485000610352     1.059566020966     0.000001083755     
20.590000152588     1.064857006073     0.000001100263     
20.694999694824     1.070147991180     0.000001118307     
20.799999237061     1.075273990631     0.000001137118     
20.905000686646     1.080566048622     0.000001156313     
21.010000228882     1.085857033730     0.000001175508     
21.114999771118     1.091148018837     0.000001195855     
21.219999313354     1.096439003944     0.000001215818     
21.325000762939     1.101565003395     0.000001237316     
21.430000305176     1.106855988503     0.000001260350     
21.534999847412     1.112146973610     0.000001284152     
21.639999389648     1.117439031601     0.000001307186     
21.745000839233     1.122730016708     0.000001330988     
21.850000381470     1.128021001816     0.000001357094     
21.954999923706     1.133311986923     0.000001383199     
22.059999465942     1.138437986374     0.000001410456     
22.165000915527     1.143728971481     0.000001438481     
22.270000457764     1.149021029472     0.000001467657     
22.375000000000     1.154312014580     0.000001496450     
22.479999542236     1.159602999687     0.000001527162     
22.584999084473     1.164728999138     0.000001559794     
22.690000534058     1.170184969902     0.000001592425     
22.795000076294     1.175310969353     0.000001625441     
22.899999618530     1.180603027344     0.000001659992     
23.004999160767     1.185894012451     0.000001695695     
23.110000610352     1.191184997559     0.000001731782     
23.215000152588     1.196310997009     0.000001769788     
23.319999694824     1.196972012520     0.000001720649     
23.424999237061     1.191846013069     0.000001586283     
23.530000686646     1.186555027962     0.000001466122     
23.635000228882     1.181264042854     0.000001358629     
23.739999771118     1.175973057747     0.000001261502     
23.844999313354     1.170847058296     0.000001173588     
23.950000762939     1.165555953979     0.000001093353     
24.055000305176     1.160264015198     0.000001020795     
24.159999847412     1.154973030090     0.000000953229     
24.264999389648     1.149847030640     0.000000891804     
24.370000839233     1.144556045532     0.000000836139     
24.475000381470     1.139264941216     0.000000785080     
24.579999923706     1.133973956108     0.000000737860     
24.684999465942     1.128682971001     0.000000694479     
24.790000915527     1.123391032219     0.000000654553     
24.895000457764     1.118265032768     0.000000617314     
25.000000000000     1.112974047661     0.000000583915     
25.104999542236     1.107682943344     0.000000553587     
25.209999084473     1.102391958237     0.000000524794     
25.315000534058     1.097100973129     0.000000497537     
25.420000076294     1.091809034348     0.000000473351     
25.524999618530     1.086683034897     0.000000450701     
25.629999160767     1.081392049789     0.000000429586     
25.735000610352     1.076100945473     0.000000410775     
25.840000152588     1.070809960365     0.000000393116     
25.944999694824     1.065518975258     0.000000375840     
26.049999237061     1.060227036476     0.000000360100     
26.155000686646     1.054936051369     0.000000346280     
26.260000228882     1.049644947052     0.000000333227     
26.364999771118     1.044518947601     0.000000320558     
26.459999084473     1.037408947945     0.000000296746     
26.565000534058     1.032282948494     0.000000285583     
26.670000076294     1.026991963387     0.000000276056     
26.774999618530     1.021865963936     0.000000266698     
26.879999160767     1.016409993172     0.000000258095     
26.985000610352     1.011283993721     0.000000250373     
27.090000152588     1.005992054939     0.000000243280     
27.194999694824     1.000700950623     0.000000234971     
27.299999237061     0.995410025120     0.000000227879     
27.405000686646     0.990284025669     0.000000222003     
27.510000228882     0.984827995300     0.000000216170     
27.614999771118     0.979701995850     0.000000209959     
27.719999313354     0.974409997463     0.000000204587     
27.825000762939     0.969119012356     0.000000199090     
27.930000305176     0.963828027248     0.000000193214     
28.034999847412     0.958702027798     0.000000188850     
28.139999389648     0.953410983086     0.000000184821     
28.245000839233     0.948119997978     0.000000180247     
28.350000381470     0.942829012871     0.000000174959     
28.454999923706     0.937537014484     0.000000171056     
28.559999465942     0.932246029377     0.000000166565     
28.665000915527     0.926954984665     0.000000162369     
28.770000457764     0.921663999557     0.000000159263     
28.875000000000     0.916538000107     0.000000155990     
28.979999542236     0.911247014999     0.000000151248     
29.084999084473     0.905955016613     0.000000147093     
29.190000534058     0.900663971901     0.000000143987     
29.295000076294     0.895537972450     0.000000140672     
29.399999618530     0.890082001686     0.000000136685     
29.504999160767     0.884956002235     0.000000133706     
29.610000610352     0.879665017128     0.000000130264     
29.715000152588     0.874539017677     0.000000125942     
29.819999694824     0.869081974030     0.000000122878     
29.924999237061     0.863955974579     0.000000120486     
30.030000686646     0.858664989471     0.000000116919     
30.135000228882     0.853374004364     0.000000113016     
30.239999771118     0.848083019257     0.000000109911     
30.344999313354     0.842791020870     0.000000106217     
30.450000762939     0.837499976158     0.000000102860     
30.555000305176     0.832373976707     0.000000100216     
30.659999847412     0.827082991600     0.000000097614     
30.764999389648     0.821792006493     0.000000093627     
30.870000839233     0.816501021385     0.000000089683     
30.975000381470     0.811209976673     0.000000086745     
31.079999923706     0.805917978287     0.000000083262     
31.184999465942     0.800626993179     0.000000079988     
31.290000915527     0.795336008072     0.000000077093     
31.395000457764     0.790210008621     0.000000073861     
31.500000000000     0.784919023514     0.000000069245     
31.604999542236     0.779627978802     0.000000065930     
31.709999084473     0.774501979351     0.000000063328     
31.815000534058     0.769044995308     0.000000060012     
31.920000076294     0.763754010201     0.000000055732     
32.025001525879     0.758628010750     0.000000052584     
32.130001068115     0.753337025642     0.000000048807     
32.235000610352     0.748045980930     0.000000044988     
32.340000152588     0.742753982544     0.000000041799     
32.444999694824     0.737462997437     0.000000039239     
32.549999237061     0.732336997986     0.000000035126     
32.654998779297     0.727046012878     0.000000031055     
32.759998321533     0.721755027771     0.000000027908     
32.865001678467     0.716463983059     0.000000024634     
32.970001220703     0.711172997952     0.000000021277     
33.025001525879     0.702243983746     0.000000014854     
33.130001068115     0.697117984295     0.000000011295     
33.235000610352     0.691825985909     0.000000008526     
33.340000152588     0.686535000801     0.000000005413     
33.444999694824     0.681409001350     0.000000001747     
33.549999237061     0.676118016243     -0.000000001362     
33.654998779297     0.670826971531     -0.000000004047     
33.759998321533     0.665535986423     -0.000000007946     
33.865001678467     0.660245001316     -0.000000011616     
33.970001220703     0.655119001865     -0.000000014736     
34.075000762939     0.649827003479     -0.000000017936     
34.180000305176     0.644536018372     -0.000000021705     
34.284999847412     0.639244973660     -0.000000024662     
34.389999389648     0.634118974209     -0.000000027881     
34.494998931885     0.628827989101     -0.000000031795     
34.599998474121     0.623701989651     -0.000000035171     
34.705001831055     0.618411004543     -0.000000037811     
34.810001373291     0.613120019436     -0.000000041095     
34.915000915527     0.607828021049     -0.000000044356     
35.020000457764     0.602702975273     -0.000000046973     
35.125000000000     0.597410976887     -0.000000049602     
