
Cycle 1
Physical Cycle 1
Step 1

Time (s),          Potential (V),         Current (A)
0.104999996722     0.002644000109     -0.000000234055     
0.209999993443     0.007766999770     -0.000000214870     
0.314999997616     0.013055000454     -0.000000195685     
0.419999986887     0.018342999741     -0.000000180337     
0.449999988079     0.028423000127     -0.000000086761     
0.555000007153     0.033546000719     -0.000000074807     
0.660000026226     0.038833998144     -0.000000064010     
0.764999985695     0.044121999294     -0.000000053213     
0.795000016689     0.054202999920     -0.000000029589     
0.899999976158     0.059491001070     -0.000000021822     
1.004999995232     0.064778998494     -0.000000015027     
1.110000014305     0.069900996983     -0.000000008231     
1.139999985695     0.079816997051     0.000000003000     
1.245000004768     0.085105001926     0.000000007528     
1.350000023842     0.090392999351     0.000000011338     
1.455000042915     0.095514997840     0.000000015629     
1.559999942780     0.100803002715     0.000000019028     
1.664999961853     0.106091998518     0.000000021106     
1.769999980927     0.111380003393     0.000000023699     
1.875000000000     0.116668000817     0.000000026395     
1.980000019073     0.121789999306     0.000000027947     
2.085000038147     0.127077996731     0.000000029268     
2.190000057220     0.132366999984     0.000000031108     
2.295000076294     0.137655004859     0.000000032045     
2.400000095367     0.142942994833     0.000000032890     
2.505000114441     0.148230999708     0.000000034353     
2.609999895096     0.153519004583     0.000000035172     
2.714999914169     0.158641993999     0.000000035064     
2.819999933243     0.163929998875     0.000000035825     
2.924999952316     0.169218003750     0.000000036973     
3.029999971390     0.174505993724     0.000000037200     
3.134999990463     0.179627999663     0.000000037280     
3.240000009537     0.184917002916     0.000000038187     
3.345000028610     0.190204992890     0.000000038767     
3.450000047684     0.195492997766     0.000000039143     
3.555000066757     0.200781002641     0.000000040134     
3.660000085831     0.206068992615     0.000000040837     
3.765000104904     0.211191996932     0.000000040799     
3.869999885559     0.216480001807     0.000000041951     
3.974999904633     0.221768006682     0.000000043360     
4.079999923706     0.227055996656     0.000000043629     
4.184999942780     0.232344001532     0.000000044205     
4.289999961853     0.237632006407     0.000000045680     
4.394999980927     0.242754995823     0.000000046556     
4.500000000000     0.248043000698     0.000000047478     
4.605000019073     0.253331005573     0.000000049133     
4.710000038147     0.258619010448     0.000000050255     
4.815000057220     0.263906985521     0.000000050989     
4.920000076294     0.269030004740     0.000000052936     
5.025000095367     0.274318009615     0.000000054872     
5.130000114441     0.279606014490     0.000000055947     
5.235000133514     0.284893989563     0.000000057545     
5.340000152588     0.290181994438     0.000000059927     
5.445000171661     0.295469999313     0.000000061655     
5.550000190735     0.300592988729     0.000000063737     
5.655000209808     0.305880993605     0.000000066322     
5.760000228882     0.311168998480     0.000000068511     
5.864999771118     0.316291987896     0.000000070282     
5.969999790192     0.321579992771     0.000000073278     
6.074999809265     0.326867997646     0.000000076231     
6.179999828339     0.332156002522     0.000000078179     
6.284999847412     0.337278991938     0.000000080549     
6.389999866486     0.342566996813     0.000000083955     
6.494999885559     0.347855001688     0.000000086429     
6.554999828339     0.356943011284     0.000000091426     
6.659999847412     0.362231999636     0.000000093874     
6.764999866486     0.367520004511     0.000000096196     
6.869999885559     0.372642010450     0.000000099573     
6.974999904633     0.378096014261     0.000000102527     
7.079999923706     0.383383989334     0.000000104427     
7.184999942780     0.388507008553     0.000000107255     
7.289999961853     0.393795013428     0.000000110505     
7.394999980927     0.399082988501     0.000000112911     
7.500000000000     0.404370993376     0.000000115106     
7.605000019073     0.409658998251     0.000000118229     
7.710000038147     0.414947003126     0.000000120424     
7.815000057220     0.420069992542     0.000000122619     
7.920000076294     0.425357997417     0.000000125447     
8.024999618530     0.430646002293     0.000000127811     
8.130000114441     0.435934007168     0.000000129162     
8.234999656677     0.441222012043     0.000000131314     
8.340000152588     0.446345001459     0.000000133847     
8.444999694824     0.451633006334     0.000000135282     
8.550000190735     0.456921011209     0.000000136591     
8.654999732971     0.462208986282     0.000000138574     
8.760000228882     0.467496991158     0.000000139841     
8.864999771118     0.472784996033     0.000000141065     
8.970000267029     0.478073000908     0.000000142584     
9.074999809265     0.483195990324     0.000000143851     
9.180000305176     0.488649010658     0.000000144019     
9.284999847412     0.493772000074     0.000000145159     
9.390000343323     0.499060004950     0.000000146510     
9.494999885559     0.504347980022     0.000000146890     
9.600000381470     0.509635984898     0.000000147143     
9.704999923706     0.514759004116     0.000000148367     
9.810000419617     0.520047008991     0.000000148747     
9.914999961853     0.525335013866     0.000000149296     
10.020000457764     0.530623018742     0.000000150224     
10.125000000000     0.535911023617     0.000000150900     
10.229999542236     0.541364014149     0.000000150773     
10.335000038147     0.546486973763     0.000000151871     
10.439999580383     0.551774978638     0.000000153010     
10.545000076294     0.557062983513     0.000000153306     
10.649999618530     0.562186002731     0.000000153643     
10.755000114441     0.567474007607     0.000000155121     
10.859999656677     0.572762012482     0.000000155923     
10.965000152588     0.578050017357     0.000000156767     
11.069999694824     0.583338022232     0.000000158160     
11.175000190735     0.588626027107     0.000000159553     
11.279999732971     0.593913972378     0.000000160059     
11.385000228882     0.599201977253     0.000000161790     
11.489999771118     0.604324996471     0.000000163774     
11.595000267029     0.609613001347     0.000000164744     
11.699999809265     0.614901006222     0.000000165969     
11.805000305176     0.620189011097     0.000000168248     
11.909999847412     0.625477015972     0.000000169894     
12.015000343323     0.630599975586     0.000000171582     
12.119999885559     0.635887980461     0.000000173862     
12.225000381470     0.641175985336     0.000000175930     
12.329999923706     0.646463990211     0.000000177450     
12.435000419617     0.651751995087     0.000000180278     
12.539999961853     0.657039999962     0.000000182684     
12.645000457764     0.662328004837     0.000000184414     
12.750000000000     0.667616009712     0.000000186482     
12.854999542236     0.672739028931     0.000000189353     
12.960000038147     0.678026974201     0.000000191590     
13.064999580383     0.683314979076     0.000000193911     
13.170000076294     0.688602983952     0.000000196613     
13.274999618530     0.693890988827     0.000000199019     
13.380000114441     0.699180006981     0.000000200960     
13.484999656677     0.704302012920     0.000000204042     
13.590000152588     0.709756016731     0.000000206743     
13.694999694824     0.714878022671     0.000000208474     
13.800000190735     0.720166027546     0.000000210922     
13.904999732971     0.725454986095     0.000000214045     
14.010000228882     0.730742990971     0.000000216283     
14.114999771118     0.736030995846     0.000000218435     
14.220000267029     0.741319000721     0.000000221348     
14.324999809265     0.746441006660     0.000000223796     
14.430000305176     0.751730024815     0.000000225569     
14.534999847412     0.757018029690     0.000000228566     
14.640000343323     0.762305974960     0.000000231309     
14.744999885559     0.767593979836     0.000000233082     
14.850000381470     0.772881984711     0.000000235530     
14.954999923706     0.778169989586     0.000000238611     
15.060000419617     0.783457994461     0.000000240849     
15.164999961853     0.788581013680     0.000000243255     
15.270000457764     0.793869018555     0.000000246251     
15.375000000000     0.799157023430     0.000000248657     
15.479999542236     0.804445028305     0.000000250894     
15.585000038147     0.809732973576     0.000000254102     
15.689999580383     0.815020978451     0.000000257015     
15.795000076294     0.820308983326     0.000000258999     
15.899999618530     0.825596988201     0.000000261700     
16.004999160767     0.830720007420     0.000000264908     
16.110000610352     0.836008012295     0.000000267525     
16.215000152588     0.841296017170     0.000000270015     
16.319999694824     0.846584022045     0.000000273350     
16.424999237061     0.851706981659     0.000000276051     
16.530000686646     0.856994986534     0.000000278415     
16.635000228882     0.862282991409     0.000000281834     
16.739999771118     0.867570996284     0.000000285127     
16.844999313354     0.872859001160     0.000000287237     
16.950000762939     0.878147006035     0.000000290487     
17.055000305176     0.883435010910     0.000000294075     
17.159999847412     0.888557970524     0.000000296819     
17.264999389648     0.893845975399     0.000000299351     
17.370000839233     0.899133980274     0.000000302981     
17.475000381470     0.904421985149     0.000000305683     
17.579999923706     0.909709990025     0.000000308722     
17.684999465942     0.914997994900     0.000000312267     
17.790000915527     0.920121014118     0.000000315475     
17.895000457764     0.925409018993     0.000000317881     
18.000000000000     0.930697023869     0.000000321258     
18.104999542236     0.936150014400     0.000000325141     
18.209999084473     0.941272974014     0.000000328012     
18.315000534058     0.946560978889     0.000000330840     
18.420000076294     0.951848983765     0.000000334765     
18.524999618530     0.957136988640     0.000000338015     
18.629999160767     0.962260007858     0.000000341139     
18.735000610352     0.967548012733     0.000000345022     
18.840000152588     0.972836017609     0.000000348610     
18.944999694824     0.978124022484     0.000000351354     
19.049999237061     0.983412027359     0.000000355279     
19.155000686646     0.988534986973     0.000000359331     
19.260000228882     0.993987977505     0.000000362835     
19.364999771118     0.999110996723     0.000000366254     
19.469999313354     1.004398941994     0.000000370686     
19.575000762939     1.009686946869     0.000000374358     
19.680000305176     1.014974951744     0.000000378368     
19.784999847412     1.020097970963     0.000000382969     
19.889999389648     1.025385975838     0.000000387401     
19.995000839233     1.030673980713     0.000000391199     
20.100000381470     1.035961985588     0.000000396138     
20.204999923706     1.041249990463     0.000000401203     
20.309999465942     1.046537995338     0.000000405720     
20.415000915527     1.051661014557     0.000000410278     
20.520000457764     1.057114005089     0.000000416145     
20.625000000000     1.062237024307     0.000000421337     
20.729999542236     1.067525029182     0.000000426867     
20.834999084473     1.072813034058     0.000000433072     
20.940000534058     1.078101038933     0.000000439023     
21.045000076294     1.083389043808     0.000000444721     
21.149999618530     1.088511943817     0.000000451728     
21.254999160767     1.093966007233     0.000000458819     
21.360000610352     1.099087953568     0.000000465193     
21.465000152588     1.104375958443     0.000000472284     
21.569999694824     1.109663963318     0.000000480431     
21.674999237061     1.114953041077     0.000000487944     
21.780000686646     1.120074987411     0.000000496344     
21.885000228882     1.125362992287     0.000000505335     
21.989999771118     1.130650997162     0.000000514452     
22.094999313354     1.135939002037     0.000000523400     
22.200000762939     1.141227960587     0.000000533910     
22.305000305176     1.146515965462     0.000000544505     
22.409999847412     1.151638031006     0.000000554762     
22.514999389648     1.156926035881     0.000000565568     
22.620000839233     1.162214994431     0.000000578146     
22.725000381470     1.167502999306     0.000000590218     
22.829999923706     1.172791004181     0.000000603092     
22.934999465942     1.178079009056     0.000000616726     
23.040000915527     1.183367013931     0.000000630993     
23.145000457764     1.188490033150     0.000000645217     
23.250000000000     1.193778038025     0.000000661088     
23.354999542236     1.198073983192     0.000000668686     
23.459999084473     1.194769024849     0.000000621707     
23.565000534058     1.189481019974     0.000000573250     
23.670000076294     1.184193015099     0.000000530914     
23.774999618530     1.179069995880     0.000000492376     
23.879999160767     1.173781991005     0.000000457764     
23.985000610352     1.168493986130     0.000000427204     
24.090000152588     1.163205981255     0.000000399135     
24.194999694824     1.158082962036     0.000000373176     
24.299999237061     1.152794957161     0.000000350636     
24.405000686646     1.147506952286     0.000000329784     
24.510000228882     1.142218947411     0.000000309693     
24.614999771118     1.137096047401     0.000000292091     
24.719999313354     1.131643056870     0.000000276685     
24.825000762939     1.126520037651     0.000000261531     
24.930000305176     1.121232032776     0.000000247729     
25.034999847412     1.115944027901     0.000000235572     
25.139999389648     1.110821008682     0.000000223838     
25.245000839233     1.105533003807     0.000000212695     
25.350000381470     1.100080013275     0.000000203366     
25.454999923706     1.094956994057     0.000000194207     
25.559999465942     1.089668989182     0.000000185047     
25.665000915527     1.084545969963     0.000000177196     
25.770000457764     1.079257965088     0.000000170232     
25.875000000000     1.073804974556     0.000000163183     
25.979999542236     1.068681955338     0.000000156429     
26.084999084473     1.063393950462     0.000000150773     
26.190000534058     1.058105945587     0.000000145117     
26.295000076294     1.052817940712     0.000000139376     
26.399999618530     1.047695040703     0.000000135029     
26.504999160767     1.042407035828     0.000000130386     
26.610000610352     1.037119030952     0.000000125278     
26.715000152588     1.031831026077     0.000000121268     
26.819999694824     1.026543021202     0.000000118018     
26.924999237061     1.021420001984     0.000000113882     
27.030000686646     1.015967011452     0.000000109872     
27.135000228882     1.010843992233     0.000000107297     
27.239999771118     1.005555987358     0.000000103962     
27.344999313354     1.000267982483     0.000000100712     
27.450000762939     0.994979977608     0.000000098264     
27.555000305176     0.989691972733     0.000000095605     
27.659999847412     0.984404027462     0.000000092270     
27.764999389648     0.979116022587     0.000000090160     
27.870000839233     0.973828017712     0.000000088218     
27.975000381470     0.968704998493     0.000000085517     
28.079999923706     0.963416993618     0.000000083026     
28.184999465942     0.958128988743     0.000000081380     
28.290000915527     0.952840983868     0.000000079228     
28.395000457764     0.947718024254     0.000000076990     
28.500000000000     0.942430019379     0.000000075513     
28.604999542236     0.936977028847     0.000000073698     
28.709999084473     0.931854009628     0.000000071419     
28.815000534058     0.926566004753     0.000000070153     
28.920000076294     0.921277999878     0.000000069013     
29.024999618530     0.915989995003     0.000000066607     
29.129999160767     0.910866975784     0.000000064750     
29.235000610352     0.905578970909     0.000000063905     
29.340000152588     0.900291025639     0.000000062133     
29.444999694824     0.895003020763     0.000000060529     
29.549999237061     0.889715015888     0.000000059558     
29.655000686646     0.884427011013     0.000000057996     
29.760000228882     0.879139006138     0.000000056097     
29.864999771118     0.874015986919     0.000000055337     
29.969999313354     0.868727982044     0.000000054282     
30.075000762939     0.863439977169     0.000000052256     
30.180000305176     0.858151972294     0.000000051032     
30.284999847412     0.852864027023     0.000000050145     
30.389999389648     0.847575008869     0.000000048668     
30.495000839233     0.842287003994     0.000000047190     
30.600000381470     0.836998999119     0.000000046388     
30.704999923706     0.831876993179     0.000000045207     
30.809999465942     0.826588988304     0.000000043729     
30.915000915527     0.821300029755     0.000000042969     
31.020000457764     0.816012024879     0.000000042041     
31.125000000000     0.810724020004     0.000000039635     
31.229999542236     0.805436015129     0.000000038960     
31.334999084473     0.800312995911     0.000000038495     
31.440000534058     0.795024991035     0.000000037060     
31.545000076294     0.789736986160     0.000000035456     
31.649999618530     0.784448981285     0.000000035034     
31.754999160767     0.779160976410     0.000000033641     
31.860000610352     0.773872971535     0.000000032206     
31.965000152588     0.768585026264     0.000000031573     
32.069999694824     0.763297021389     0.000000030560     
32.174999237061     0.756851971149     0.000000029260     
32.279998779297     0.751564025879     0.000000028296     
32.384998321533     0.746441006660     0.000000027693     
32.490001678467     0.741153001785     0.000000026261     
32.595001220703     0.735864996910     0.000000024809     
32.700000762939     0.730576992035     0.000000024313     
32.805000305176     0.725288987160     0.000000023053     
32.909999847412     0.720000982285     0.000000021536     
33.014999389648     0.714712977409     0.000000020872     
33.119998931885     0.709590017796     0.000000020004     
33.224998474121     0.704302012920     0.000000018191     
33.330001831055     0.699014008045     0.000000017261     
33.435001373291     0.693726003170     0.000000016597     
33.540000915527     0.688602983952     0.000000015064     
33.645000457764     0.683314979076     0.000000013666     
33.750000000000     0.678026974201     0.000000013151     
33.854999542236     0.672739028931     0.000000011819     
33.959999084473     0.667451024055     0.000000010463     
34.064998626709     0.662163019180     0.000000009856     
34.169998168945     0.657039999962     0.000000008880     
34.275001525879     0.651751995087     0.000000007033     
34.380001068115     0.646299004555     0.000000006368     
34.485000610352     0.641175985336     0.000000005658     
34.590000152588     0.636053025723     0.000000004129     
34.694999694824     0.630765020847     0.000000002881     
34.799999237061     0.625477015972     0.000000002512     
34.904998779297     0.620189011097     0.000000001122     
35.009998321533     0.614901006222     -0.000000000050     
35.115001678467     0.609613001347     -0.000000000549     
35.220001220703     0.604324996471     -0.000000001364     
