
Cycle 1
Physical Cycle 1
Step 1

Time (s),          Potential (V),         Current (A)
0.104999996722     0.002485000063     -0.000000213993     
0.209999993443     0.007619999815     -0.000000202529     
0.314999997616     0.012920999900     -0.000000187244     
0.419999986887     0.018222000450     -0.000000179602     
0.449999988079     0.028161000460     -0.000000158042     
0.555000007153     0.033461999148     -0.000000148020     
0.660000026226     0.038763001561     -0.000000139154     
0.764999985695     0.044064000249     -0.000000129517     
0.795000016689     0.054003998637     -0.000000113687     
0.899999976158     0.059305001050     -0.000000105873     
1.004999995232     0.064606003463     -0.000000098311     
1.110000014305     0.069907002151     -0.000000090664     
1.215000033379     0.075208000839     -0.000000083648     
1.320000052452     0.080343000591     -0.000000077598     
1.424999952316     0.085643999279     -0.000000071380     
1.529999971390     0.090944997966     -0.000000064700     
1.634999990463     0.096245996654     -0.000000058860     
1.740000009537     0.101380996406     -0.000000053231     
1.845000028610     0.106682002544     -0.000000047685     
1.950000047684     0.111983001232     -0.000000042307     
2.055000066757     0.117283999920     -0.000000037644     
2.160000085831     0.122418999672     -0.000000032350     
2.265000104904     0.127719998360     -0.000000026930     
2.369999885559     0.133020997047     -0.000000022309     
2.474999904633     0.138321995735     -0.000000017940     
2.579999923706     0.144617006183     -0.000000011672     
2.684999942780     0.149918004870     -0.000000006981     
2.789999961853     0.155053004622     -0.000000002802     
2.894999980927     0.160354003310     0.000000002499     
3.000000000000     0.165490001440     0.000000007846     
3.105000019073     0.170791000128     0.000000012355     
3.210000038147     0.175925999880     0.000000017045     
3.315000057220     0.181226998568     0.000000022582     
3.420000076294     0.186527997255     0.000000027921     
3.525000095367     0.191662997007     0.000000033181     
3.630000114441     0.196963995695     0.000000039472     
3.734999895096     0.202099993825     0.000000045437     
3.839999914169     0.207401007414     0.000000050810     
3.944999933243     0.212702006102     0.000000056950     
4.050000190735     0.217837005854     0.000000063673     
4.155000209808     0.222972005606     0.000000070218     
4.260000228882     0.228273004293     0.000000077063     
4.364999771118     0.233574002981     0.000000084378     
4.454999923706     0.241028994322     0.000000095706     
4.559999942780     0.246329993010     0.000000103058     
4.664999961853     0.251464992762     0.000000110957     
4.769999980927     0.256765991449     0.000000119149     
4.875000000000     0.262066990137     0.000000127300     
4.980000019073     0.267367988825     0.000000135114     
5.085000038147     0.272668987513     0.000000143685     
5.190000057220     0.277803987265     0.000000152760     
5.295000076294     0.283104985952     0.000000161582     
5.400000095367     0.288406014442     0.000000170027     
5.505000114441     0.293541014194     0.000000179060     
5.610000133514     0.299008011818     0.000000187925     
5.715000152588     0.304143011570     0.000000196327     
5.820000171661     0.309444010258     0.000000205528     
5.925000190735     0.314745008945     0.000000214561     
6.030000209808     0.319880992174     0.000000222627     
6.135000228882     0.325181990862     0.000000230484     
6.239999771118     0.330482989550     0.000000238886     
6.344999790192     0.335783004761     0.000000246869     
6.449999809265     0.341084003448     0.000000254221     
6.554999828339     0.346219986677     0.000000261994     
6.659999847412     0.351520985365     0.000000269346     
6.764999866486     0.356822013855     0.000000275396     
6.869999885559     0.361957013607     0.000000281656     
6.974999904633     0.367258012295     0.000000288294     
7.079999923706     0.372559010983     0.000000294218     
7.184999942780     0.377860009670     0.000000299385     
7.289999961853     0.382995009422     0.000000304847     
7.394999980927     0.388296008110     0.000000309763     
7.500000000000     0.393597006798     0.000000313922     
7.605000019073     0.398898005486     0.000000318669     
7.710000038147     0.404199004173     0.000000323249     
7.815000057220     0.409334003925     0.000000326946     
7.920000076294     0.414635002613     0.000000330349     
8.024999618530     0.419936001301     0.000000334088     
8.130000114441     0.425072014332     0.000000337281     
8.234999656677     0.430373013020     0.000000340390     
8.340000152588     0.435674011707     0.000000343919     
8.444999694824     0.440975010395     0.000000347070     
8.550000190735     0.446276009083     0.000000349171     
8.654999732971     0.451577007771     0.000000351902     
8.760000228882     0.456712007523     0.000000354969     
8.864999771118     0.462013006210     0.000000357742     
8.970000267029     0.467314004898     0.000000360136     
9.074999809265     0.472615003586     0.000000362951     
9.180000305176     0.477916002274     0.000000365556     
9.284999847412     0.483051002026     0.000000367699     
9.390000343323     0.488352000713     0.000000370556     
9.494999885559     0.493652999401     0.000000373707     
9.600000381470     0.498787999153     0.000000376185     
9.704999923706     0.504088997841     0.000000378412     
9.810000419617     0.509389996529     0.000000381437     
9.914999961853     0.514690995216     0.000000384294     
10.020000457764     0.519991993904     0.000000386983     
10.125000000000     0.525292992592     0.000000390470     
10.229999542236     0.530429005623     0.000000393705     
10.335000038147     0.535730004311     0.000000396226     
10.439999580383     0.541031002998     0.000000399208     
10.545000076294     0.546332001686     0.000000402990     
10.649999618530     0.551467001438     0.000000406309     
10.755000114441     0.556768000126     0.000000409712     
10.859999656677     0.562068998814     0.000000413493     
10.965000152588     0.567369997501     0.000000417190     
11.069999694824     0.572504997253     0.000000420257     
11.175000190735     0.577805995941     0.000000424332     
11.279999732971     0.583106994629     0.000000428660     
11.385000228882     0.588407993317     0.000000432483     
11.489999771118     0.593708992004     0.000000436180     
11.595000267029     0.598843991756     0.000000440507     
11.699999809265     0.604144990444     0.000000444793     
11.805000305176     0.609445989132     0.000000448868     
11.909999847412     0.614746987820     0.000000453699     
12.015000343323     0.620047986507     0.000000458657     
12.119999885559     0.625182986259     0.000000462564     
12.225000381470     0.630483984947     0.000000466976     
12.329999923706     0.635784983635     0.000000472101     
12.435000419617     0.641085982323     0.000000476891     
12.539999961853     0.646221995354     0.000000481596     
12.645000457764     0.651522994041     0.000000486806     
12.750000000000     0.656823992729     0.000000491805     
12.854999542236     0.662124991417     0.000000496343     
12.960000038147     0.667425990105     0.000000501552     
13.064999580383     0.672560989857     0.000000507308     
13.170000076294     0.677861988544     0.000000512224     
13.274999618530     0.682996988297     0.000000517055     
13.380000114441     0.688463985920     0.000000522601     
13.484999656677     0.693598985672     0.000000527769     
13.590000152588     0.698899984360     0.000000532810     
13.694999694824     0.704200983047     0.000000538650     
13.800000190735     0.709501981735     0.000000544238     
13.904999732971     0.714636981487     0.000000548943     
14.010000228882     0.719937980175     0.000000553901     
14.114999771118     0.725238978863     0.000000559741     
14.220000267029     0.730374991894     0.000000565076     
14.324999809265     0.735675990582     0.000000570370     
14.430000305176     0.740976989269     0.000000576126     
14.534999847412     0.746277987957     0.000000581755     
14.640000343323     0.751578986645     0.000000586503     
14.744999885559     0.756879985332     0.000000592007     
14.850000381470     0.762014985085     0.000000597846     
14.954999923706     0.767315983772     0.000000603266     
15.060000419617     0.772616982460     0.000000608350     
15.164999961853     0.777917981148     0.000000614274     
15.270000457764     0.783052980900     0.000000619777     
15.375000000000     0.788353979588     0.000000625113     
15.479999542236     0.793654978275     0.000000631205     
15.585000038147     0.798789978027     0.000000637129     
15.689999580383     0.804090976715     0.000000642254     
15.795000076294     0.809391975403     0.000000647548     
15.899999618530     0.814692974091     0.000000653724     
16.004999160767     0.819993972778     0.000000659522     
16.110000610352     0.825129985809     0.000000665109     
16.215000152588     0.830430984497     0.000000671159     
16.319999694824     0.835731029510     0.000000677041     
16.424999237061     0.841032028198     0.000000682377     
16.530000686646     0.846333026886     0.000000688175     
16.635000228882     0.851468980312     0.000000694435     
16.739999771118     0.856769979000     0.000000700232     
16.844999313354     0.862070977688     0.000000705778     
16.950000762939     0.867371976376     0.000000711996     
17.055000305176     0.872506976128     0.000000717752     
17.159999847412     0.877807974815     0.000000723382     
17.264999389648     0.883108973503     0.000000729852     
17.370000839233     0.888409972191     0.000000736154     
17.475000381470     0.893710970879     0.000000741573     
17.579999923706     0.899012029171     0.000000747203     
17.684999465942     0.904147028923     0.000000753757     
17.790000915527     0.909448027611     0.000000759765     
17.895000457764     0.914749026299     0.000000765899     
18.000000000000     0.919884026051     0.000000772369     
18.104999542236     0.925185024738     0.000000778545     
18.209999084473     0.930486023426     0.000000784217     
18.315000534058     0.935787022114     0.000000790392     
18.420000076294     0.940922975540     0.000000797451     
18.524999618530     0.946223974228     0.000000803837     
18.629999160767     0.951524972916     0.000000809803     
18.735000610352     0.956825971603     0.000000816735     
18.840000152588     0.962126970291     0.000000823289     
18.944999694824     0.967262029648     0.000000829801     
19.049999237061     0.972563028336     0.000000836985     
19.155000686646     0.977864027023     0.000000844211     
19.260000228882     0.982999026775     0.000000850849     
19.364999771118     0.988300025463     0.000000857697     
19.469999313354     0.993601024151     0.000000865302     
19.575000762939     0.998902022839     0.000000872570     
19.680000305176     1.004037022591     0.000000880342     
19.784999847412     1.009338021278     0.000000888535     
19.889999389648     1.014639019966     0.000000896518     
19.995000839233     1.019940018654     0.000000903870     
20.100000381470     1.025241017342     0.000000912272     
20.204999923706     1.030377030373     0.000000921473     
20.309999465942     1.035678029060     0.000000930212     
20.415000915527     1.040979027748     0.000000938993     
20.520000457764     1.046280026436     0.000000948530     
20.625000000000     1.051579952240     0.000000958151     
20.729999542236     1.056715965271     0.000000967604     
20.834999084473     1.062016963959     0.000000978065     
20.940000534058     1.067317962646     0.000000989072     
21.045000076294     1.072618961334     0.000000999618     
21.149999618530     1.077754020691     0.000001010541     
21.254999160767     1.083055019379     0.000001022263     
21.360000610352     1.088356018066     0.000001034152     
21.420000076294     1.097301006317     0.000001060037     
21.524999618530     1.102767944336     0.000001073143     
21.629999160767     1.107903003693     0.000001086249     
21.735000610352     1.113204002380     0.000001100126     
21.840000152588     1.118505001068     0.000001115159     
21.944999694824     1.123805999756     0.000001130578     
22.049999237061     1.128942012787     0.000001146382     
22.155000686646     1.134243011475     0.000001163342     
22.260000228882     1.139543056488     0.000001181074     
22.364999771118     1.144844055176     0.000001198035     
22.469999313354     1.150145053864     0.000001217308     
22.575000762939     1.155280947685     0.000001237352     
22.680000305176     1.160581946373     0.000001257397     
22.784999847412     1.165882945061     0.000001278212     
22.889999389648     1.171018004417     0.000001300954     
22.995000839233     1.176319003105     0.000001324468     
23.100000381470     1.181620001793     0.000001348367     
23.204999923706     1.186921000481     0.000001373808     
23.309999465942     1.192055940628     0.000001400405     
23.415000915527     1.197357058525     0.000001427388     
23.520000457764     1.197026014328     0.000001379205     
23.625000000000     1.191890954971     0.000001289390     
23.729999542236     1.186589956284     0.000001208442     
23.834999084473     1.181288957596     0.000001135203     
23.940000534058     1.176152944565     0.000001068903     
24.045000076294     1.170851945877     0.000001008384     
24.149999618530     1.165550947189     0.000000952106     
24.254999160767     1.160249948502     0.000000900839     
24.360000610352     1.154948949814     0.000000854197     
24.465000152588     1.149814009666     0.000000810254     
24.569999694824     1.144513010979     0.000000769780     
24.674999237061     1.139212012291     0.000000732389     
24.780000686646     1.134076952934     0.000000697697     
24.885000228882     1.128610014915     0.000000664547     
24.989999771118     1.123474955559     0.000000634480     
25.094999313354     1.118173956871     0.000000607112     
25.200000762939     1.112872958183     0.000000579744     
25.305000305176     1.107571959496     0.000000554688     
25.409999847412     1.102437019348     0.000000531560     
25.514999389648     1.097136020660     0.000000509589     
25.620000839233     1.091835021973     0.000000489159     
25.725000381470     1.086534023285     0.000000469885     
25.829999923706     1.081398010254     0.000000451768     
25.934999465942     1.075932025909     0.000000433652     
26.040000915527     1.070796966553     0.000000417462     
26.145000457764     1.065495967865     0.000000402814     
26.250000000000     1.060194969177     0.000000388166     
26.354999542236     1.055058956146     0.000000374289     
26.459999084473     1.049757957458     0.000000361184     
26.565000534058     1.044456958771     0.000000349234     
26.670000076294     1.039155960083     0.000000336899     
26.704999923706     1.029217004776     0.000000316569     
26.809999465942     1.023916006088     0.000000306486     
26.915000915527     1.018780946732     0.000000296907     
27.020000457764     1.013479948044     0.000000287748     
27.125000000000     1.008178949356     0.000000278589     
27.229999542236     1.003043055534     0.000000270606     
27.334999084473     0.997741997242     0.000000263044     
27.440000534058     0.992442011833     0.000000255314     
27.545000076294     0.987141013145     0.000000247415     
27.649999618530     0.981840014458     0.000000240861     
27.754999160767     0.976539015770     0.000000234013     
27.860000610352     0.971403002739     0.000000227459     
27.965000152588     0.966102004051     0.000000221661     
28.069999694824     0.960801005363     0.000000215905     
28.174999237061     0.955666005611     0.000000209561     
28.280000686646     0.950365006924     0.000000203848     
28.385000228882     0.945064008236     0.000000198974     
28.489999771118     0.939763009548     0.000000193806     
28.594999313354     0.934462010860     0.000000188849     
28.700000762939     0.929327011108     0.000000184353     
28.805000305176     0.924026012421     0.000000179648     
28.909999847412     0.918725013733     0.000000174522     
29.014999389648     0.913424015045     0.000000170405     
29.120000839233     0.908289015293     0.000000166750     
29.225000381470     0.902988016605     0.000000162381     
29.329999923706     0.897687017918     0.000000158137     
29.434999465942     0.892386019230     0.000000154482     
29.540000915527     0.887085020542     0.000000150491     
29.645000457764     0.881949007511     0.000000146626     
29.750000000000     0.876648008823     0.000000143517     
29.854999542236     0.871347010136     0.000000140282     
29.959999084473     0.866212010384     0.000000136290     
30.065000534058     0.860911011696     0.000000132551     
30.170000076294     0.855444014072     0.000000129736     
30.274999618530     0.850309014320     0.000000126417     
30.379999160767     0.845008015633     0.000000123266     
30.485000610352     0.839873015881     0.000000120284     
30.590000152588     0.834572017193     0.000000117427     
30.694999694824     0.829271018505     0.000000113645     
30.799999237061     0.823970019817     0.000000110915     
30.905000686646     0.818669021130     0.000000108646     
31.010000228882     0.813534021378     0.000000105621     
31.114999771118     0.808067023754     0.000000102470     
31.219999313354     0.802932024002     0.000000099949     
31.325000762939     0.797631025314     0.000000097092     
31.430000305176     0.792330026627     0.000000094109     
31.534999847412     0.787029027939     0.000000092009     
31.639999389648     0.781728029251     0.000000089656     
31.745000839233     0.776593029499     0.000000086505     
31.850000381470     0.771291971207     0.000000083606     
31.954999923706     0.766156017780     0.000000081505     
32.060001373291     0.760855019093     0.000000079027     
32.165000915527     0.755554020405     0.000000076464     
32.270000457764     0.750253021717     0.000000074363     
32.375000000000     0.745118021965     0.000000072179     
32.479999542236     0.739651024342     0.000000068859     
32.584999084473     0.734516024590     0.000000066633     
32.689998626709     0.729215025902     0.000000064784     
32.794998168945     0.723914027214     0.000000062305     
32.900001525879     0.718613028526     0.000000059827     
33.005001068115     0.713478028774     0.000000057600     
33.110000610352     0.708176970482     0.000000055247     
33.215000152588     0.702875971794     0.000000052600     
33.319999694824     0.697574973106     0.000000050752     
33.424999237061     0.692439973354     0.000000048903     
33.529998779297     0.687138974667     0.000000046214     
33.634998321533     0.681837975979     0.000000043610     
33.740001678467     0.676536977291     0.000000041761     
33.845001220703     0.671235978603     0.000000039324     
33.950000762939     0.665934979916     0.000000037266     
34.055000305176     0.660633981228     0.000000035333     
34.159999847412     0.655332982540     0.000000033400     
34.264999389648     0.650197029114     0.000000030333     
34.369998931885     0.645062029362     0.000000028023     
34.470001220703     0.638270020485     0.000000025244     
34.575000762939     0.633135020733     0.000000022923     
34.680000305176     0.627834022045     0.000000021194     
34.784999847412     0.622533023357     0.000000019309     
34.889999389648     0.617398023605     0.000000016515     
34.994998931885     0.612097024918     0.000000014175     
35.099998474121     0.606796026230     0.000000012290     
35.205001831055     0.601495027542     0.000000009950     
