
Cycle 1
Physical Cycle 1
Step 1

Time (s),          Potential (V),         Current (A)
0.104999996722     0.002641000086     -0.000003450047     
0.209999993443     0.007922000252     -0.000003213167     
0.314999997616     0.013203999959     -0.000003003031     
0.419999986887     0.018485000357     -0.000002804357     
0.449999988079     0.028718000278     -0.000002417335     
0.555000007153     0.033833999187     -0.000002238843     
0.660000026226     0.039115998894     -0.000002068045     
0.764999985695     0.044397000223     -0.000001904171     
0.870000004768     0.049678999931     -0.000001742605     
0.975000023842     0.054960001260     -0.000001588348     
1.080000042915     0.060075998306     -0.000001441015     
1.184999942780     0.065357998013     -0.000001295606     
1.289999961853     0.070638999343     -0.000001154812     
1.394999980927     0.075920999050     -0.000001019405     
1.500000000000     0.081202000380     -0.000000889382     
1.605000019073     0.086318001151     -0.000000762053     
1.710000038147     0.091765001416     -0.000000637801     
1.815000057220     0.097046002746     -0.000000516627     
1.919999957085     0.102328002453     -0.000000398145     
2.025000095367     0.107444003224     -0.000000283510     
2.130000114441     0.112726002932     -0.000000171568     
2.234999895096     0.118006996810     -0.000000060780     
2.339999914169     0.123288996518     0.000000047316     
2.404999971390     0.131375998259     0.000000211195     
2.509999990463     0.136491999030     0.000000316162     
2.615000009537     0.141773998737     0.000000419698     
2.720000028610     0.146889999509     0.000000524076     
2.825000047684     0.152171000838     0.000000630894     
2.930000066757     0.157287999988     0.000000739436     
3.035000085831     0.162569001317     0.000000851008     
3.140000104904     0.167686000466     0.000000966492     
3.230000019073     0.175277993083     0.000001150966     
3.335000038147     0.180558994412     0.000001279449     
3.440000057220     0.185840994120     0.000001418319     
3.545000076294     0.191121995449     0.000001566036     
3.650000095367     0.196402996778     0.000001721447     
3.755000114441     0.201519995928     0.000001884937     
3.859999895096     0.206800997257     0.000002057659     
3.964999914169     0.212082996964     0.000002238843     
4.070000171661     0.217363998294     0.000002427722     
4.175000190735     0.222645998001     0.000002626217     
4.280000209808     0.227761998773     0.000002832022     
4.385000228882     0.233043000102     0.000003044750     
4.489999771118     0.238324999809     0.000003265557     
4.594999790192     0.243606001139     0.000003492134     
4.699999809265     0.248888000846     0.000003725635     
4.804999828339     0.254168987274     0.000003962984     
4.909999847412     0.259451001883     0.000004208025     
5.014999866486     0.264566987753     0.000004456914     
5.119999885559     0.269847989082     0.000004708495     
5.224999904633     0.275130003691     0.000004967001     
5.329999923706     0.280411005020     0.000005228584     
5.434999942780     0.285692989826     0.000005492475     
5.539999961853     0.290809005499     0.000005761367     
5.644999980927     0.296090990305     0.000006029875     
5.750000000000     0.301207005978     0.000006299921     
5.855000019073     0.306488007307     0.000006573429     
5.960000038147     0.311769992113     0.000006849630     
6.065000057220     0.317050993443     0.000007124677     
6.170000076294     0.322167992592     0.000007402416     
6.275000095367     0.327448993921     0.000007682849     
6.380000114441     0.332895994186     0.000007962897     
6.485000133514     0.338012009859     0.000008241406     
6.590000152588     0.343293011189     0.000008522223     
6.695000171661     0.348574995995     0.000008804194     
6.800000190735     0.353855997324     0.000009085781     
6.905000209808     0.358972996473     0.000009366598     
6.969999790192     0.367884993553     0.000009838174     
7.074999809265     0.373167008162     0.000010113261     
7.179999828339     0.378448009491     0.000010384527     
7.284999847412     0.383729010820     0.000010651972     
7.389999866486     0.388846009970     0.000010915597     
7.494999885559     0.394127011299     0.000011179222     
7.599999904633     0.399408996105     0.000011435205     
7.704999923706     0.404689997435     0.000011683548     
7.809999942780     0.409972012043     0.000011928069     
7.914999961853     0.415253013372     0.000012164950     
8.020000457764     0.420368999243     0.000012394189     
8.125000000000     0.425651013851     0.000012619607     
8.229999542236     0.430931985378     0.000012837384     
8.335000038147     0.436378985643     0.000013043699     
8.439999580383     0.441495001316     0.000013246194     
8.545000076294     0.446942001581     0.000013441047     
8.649999618530     0.452057987452     0.000013632079     
8.755000114441     0.457338988781     0.000013819291     
8.859999656677     0.462621003389     0.000013998862     
8.965000152588     0.467902004719     0.000014182253     
9.069999694824     0.473183989525     0.000014365644     
9.175000190735     0.478300005198     0.000014549035     
9.279999732971     0.483581990004     0.000014732426     
9.385000228882     0.488862991333     0.000014923459     
9.489999771118     0.494143992662     0.000015110671     
9.595000267029     0.499426007271     0.000015305524     
9.699999809265     0.504706978798     0.000015500376     
9.805000305176     0.509823977947     0.000015702872     
9.909999847412     0.515269994736     0.000015905365     
10.015000343323     0.520551979542     0.000016115502     
10.119999885559     0.525668025017     0.000016329457     
10.225000381470     0.530948996544     0.000016547236     
10.329999923706     0.536396026611     0.000016765012     
10.435000419617     0.541512012482     0.000016990431     
10.539999961853     0.546793997288     0.000017212027     
10.645000457764     0.552075028419     0.000017437447     
10.750000000000     0.557357013226     0.000017666685     
10.854999542236     0.562637984753     0.000017899745     
10.960000038147     0.567920029163     0.000018128983     
11.064999580383     0.573201000690     0.000018365865     
11.170000076294     0.578481972218     0.000018602745     
11.274999618530     0.583764016628     0.000018835804     
11.380000114441     0.588880002499     0.000019076506     
11.484999656677     0.594161987305     0.000019317205     
11.590000152588     0.599443018436     0.000019561729     
11.694999694824     0.604725003242     0.000019806250     
11.800000190735     0.610005974770     0.000020050771     
11.904999732971     0.615287005901     0.000020295292     
12.010000228882     0.620404005051     0.000020543635     
12.114999771118     0.625850021839     0.000020795798     
12.220000267029     0.630967020988     0.000021047961     
12.324999809265     0.636247992516     0.000021303944     
12.430000305176     0.641695022583     0.000021556107     
12.534999847412     0.646811008453     0.000021819733     
12.640000343323     0.652091979980     0.000022079535     
12.744999885559     0.657374024391     0.000022346981     
12.850000381470     0.662654995918     0.000022614428     
12.954999923706     0.667936980724     0.000022878052     
13.060000419617     0.673218011856     0.000023156959     
13.164999961853     0.678499996662     0.000023424405     
13.270000457764     0.683615982533     0.000023703313     
13.375000000000     0.689061999321     0.000023989862     
13.479999542236     0.694178998470     0.000024264948     
13.585000038147     0.699460029602     0.000024536213     
13.689999580383     0.704742014408     0.000024815123     
13.795000076294     0.710022985935     0.000025097850     
13.899999618530     0.715304970741     0.000025376758     
14.005000114441     0.720586001873     0.000025655665     
14.109999656677     0.725866973400     0.000025946034     
14.215000152588     0.730983972549     0.000026244044     
14.319999694824     0.736265003681     0.000026530593     
14.425000190735     0.741546988487     0.000026798039     
14.529999732971     0.746828019619     0.000027080767     
14.635000228882     0.752274990082     0.000027374957     
14.739999771118     0.757390975952     0.000027650043     
14.845000267029     0.762672007084     0.000027925131     
14.949999809265     0.767953991890     0.000028196397     
15.055000305176     0.773069977760     0.000028448560     
15.159999847412     0.778352022171     0.000028689261     
15.265000343323     0.783632993698     0.000028956705     
15.369999885559     0.788914978504     0.000029227973     
15.475000381470     0.794196009636     0.000029495419     
15.579999923706     0.799476981163     0.000029785788     
15.685000419617     0.804759025574     0.000030102901     
15.789999961853     0.810039997101     0.000030427656     
15.895000457764     0.815321981907     0.000030721847     
16.000000000000     0.820603013039     0.000030977830     
16.104999542236     0.825720012188     0.000031283482     
16.209999084473     0.831000983715     0.000031562391     
16.315000534058     0.836448013783     0.000031818374     
16.420000076294     0.841563999653     0.000032112563     
16.524999618530     0.846844971180     0.000032490807     
16.629999160767     0.852127015591     0.000032777356     
16.735000610352     0.857407987118     0.000033079188     
16.840000152588     0.862689971924     0.000033342814     
16.944999694824     0.867971003056     0.000033698132     
17.049999237061     0.873252987862     0.000033988501     
17.155000686646     0.878368973732     0.000034244487     
17.260000228882     0.883650004864     0.000034531036     
17.364999771118     0.888931989670     0.000034851968     
17.469999313354     0.894213020802     0.000035153800     
17.575000762939     0.899495005608     0.000035470915     
17.680000305176     0.904775977135     0.000035719258     
17.784999847412     0.910058021545     0.000035979061     
17.889999389648     0.915338993073     0.000036273250     
17.995000839233     0.920620024204     0.000036586545     
18.100000381470     0.925737023354     0.000036873094     
18.204999923706     0.931017994881     0.000037220772     
18.309999465942     0.936299979687     0.000037511141     
18.415000915527     0.941581010818     0.000037774767     
18.520000457764     0.946862995625     0.000037996364     
18.625000000000     0.952144026756     0.000038263810     
18.729999542236     0.957424998283     0.000038493050     
18.834999084473     0.962706983089     0.000038749033     
18.940000534058     0.967988014221     0.000038970629     
19.045000076294     0.973105013371     0.000039234255     
19.149999618530     0.978385984898     0.000039471135     
19.254999160767     0.983668029308     0.000039700375     
19.360000610352     0.988949000835     0.000039876126     
19.465000152588     0.994229972363     0.000040105362     
19.569999694824     0.999512016773     0.000040300216     
19.674999237061     1.004793047905     0.000040483606     
19.780000686646     1.010074973106     0.000040667001     
19.885000228882     1.015355944633     0.000040850391     
19.989999771118     1.020473003387     0.000041075808     
20.094999313354     1.025918960571     0.000041274481     
20.200000762939     1.031034946442     0.000041480798     
20.305000305176     1.036316990852     0.000041721498     
20.409999847412     1.041597962379     0.000041943094     
20.514999389648     1.046880006790     0.000042134128     
20.620000839233     1.052160978317     0.000042424497     
20.725000381470     1.057278037071     0.000042646094     
20.829999923706     1.062559008598     0.000042917360     
20.934999465942     1.068006038666     0.000043173346     
21.040000915527     1.073122024536     0.000043402582     
21.145000457764     1.078402996063     0.000043662389     
21.250000000000     1.083685040474     0.000043876345     
21.354999542236     1.088966012001     0.000044174354     
21.459999084473     1.094248056412     0.000044380671     
21.565000534058     1.099529027939     0.000044617551     
21.670000076294     1.104810953140     0.000044881177     
21.774999618530     1.110092043877     0.000045110413     
21.879999160767     1.115373015404     0.000045389323     
21.985000610352     1.120489954948     0.000045694975     
22.090000152588     1.125771045685     0.000045989163     
22.194999694824     1.131052970886     0.000046248970     
22.299999237061     1.136333942413     0.000046527875     
22.405000686646     1.141615986824     0.000046833527     
22.510000228882     1.146896958351     0.000047112437     
22.614999771118     1.152178049088     0.000047406626     
22.719999313354     1.157294988632     0.000047685535     
22.825000762939     1.162575960159     0.000047987363     
22.930000305176     1.167858004570     0.000048419097     
23.034999847412     1.173303961754     0.000048839371     
23.139999389648     1.178421020508     0.000048942526     
23.245000839233     1.183701992035     0.000049129740     
23.350000381470     1.188982963562     0.000049397186     
23.454999923706     1.194265007973     0.000049637885     
23.559999465942     1.198390960693     0.000049798353     
23.665000915527     1.194594979286     0.000049316950     
23.770000457764     1.189314007759     0.000048678903     
23.875000000000     1.184196949005     0.000048105805     
23.979999542236     1.178915977478     0.000047586196     
24.084999084473     1.173634052277     0.000047043664     
24.190000534058     1.168352961540     0.000046558442     
24.295000076294     1.163071036339     0.000046298635     
24.399999618530     1.157789945602     0.000045610919     
24.504999160767     1.152508974075     0.000045087490     
24.610000610352     1.147227048874     0.000044644294     
24.715000152588     1.142110943794     0.000044216384     
24.819999694824     1.136829018593     0.000043692951     
24.924999237061     1.131548047066     0.000043257398     
25.030000686646     1.126266002655     0.000042779819     
25.135000228882     1.120985031128     0.000042344265     
25.239999771118     1.115704059601     0.000041908708     
25.344999313354     1.110422015190     0.000041438769     
25.450000762939     1.105141043663     0.000040987932     
25.555000305176     1.100023984909     0.000040605868     
25.659999847412     1.094743013382     0.000040269650     
25.764999389648     1.089460968971     0.000039906688     
25.870000839233     1.084179997444     0.000039532268     
25.975000381470     1.078899025917     0.000039157843     
26.079999923706     1.073616981506     0.000038775775     
26.184999465942     1.068336009979     0.000038359325     
26.290000915527     1.063053965569     0.000037981081     
26.395000457764     1.057937979698     0.000037545527     
26.500000000000     1.052490949631     0.000037148180     
26.604999542236     1.047374963760     0.000036796679     
26.709999084473     1.042093038559     0.000036460464     
26.815000534058     1.036811947823     0.000036078400     
26.920000076294     1.031530976295     0.000035692512     
27.024999618530     1.026249051094     0.000035360117     
27.129999160767     1.020967960358     0.000034985693     
27.235000610352     1.015686035156     0.000034641835     
27.340000152588     1.010570049286     0.000034271230     
27.444999694824     1.005288004875     0.000033885346     
27.549999237061     0.999841988087     0.000033591154     
27.655000686646     0.994726002216     0.000033205270     
27.760000228882     0.989444017410     0.000032838489     
27.864999771118     0.984162986279     0.000032551940     
27.969999313354     0.978881001472     0.000032208081     
28.075000762939     0.973599970341     0.000031852760     
28.180000305176     0.968482971191     0.000031570031     
28.284999847412     0.963201999664     0.000031222353     
28.389999389648     0.957921028137     0.000030897598     
28.495000839233     0.952638983727     0.000030576663     
28.600000381470     0.947358012199     0.000030248086     
28.704999923706     0.942076027393     0.000029892766     
28.809999465942     0.936794996262     0.000029617679     
28.915000915527     0.931677997112     0.000029300565     
29.020000457764     0.926397025585     0.000028945244     
29.125000000000     0.921115994453     0.000028670158     
29.229999542236     0.915834009647     0.000028307197     
29.334999084473     0.910552978516     0.000027978620     
29.440000534058     0.905270993710     0.000027684429     
29.545000076294     0.899990022182     0.000027409344     
29.649999618530     0.894707977772     0.000027084589     
29.754999160767     0.889427006245     0.000026752192     
29.860000610352     0.884145975113     0.000026496207     
29.965000152588     0.878863990307     0.000026159991     
30.069999694824     0.873583018780     0.000025827594     
30.174999237061     0.868300974369     0.000025506659     
30.280000686646     0.863184988499     0.000025197187     
30.385000228882     0.857903003693     0.000024967949     
30.489999771118     0.852621972561     0.000024612627     
30.594999313354     0.847341001034     0.000024329898     
30.700000762939     0.842059016228     0.000024028068     
30.805000305176     0.836777985096     0.000023695671     
30.909999847412     0.831660985947     0.000023424405     
31.014999389648     0.826215028763     0.000023137856     
31.120000839233     0.820932984352     0.000022874232     
31.225000381470     0.815652012825     0.000022530374     
31.329999923706     0.810536026955     0.000022217080     
31.434999465942     0.805253982544     0.000021926709     
31.540000915527     0.799973011017     0.000021617238     
31.645000457764     0.794691026211     0.000021345972     
31.750000000000     0.789409995079     0.000021017397     
31.854999542236     0.784128010273     0.000020696461     
31.959999084473     0.778846979141     0.000020402271     
32.064998626709     0.773729979992     0.000020115722     
32.169998168945     0.768449008465     0.000019813891     
32.275001525879     0.763167977333     0.000019538804     
32.380001068115     0.757885992527     0.000019252255     
32.485000610352     0.752605021000     0.000018977169     
32.590000152588     0.747322976589     0.000018705901     
32.694999694824     0.742042005062     0.000018404071     
32.799999237061     0.736760020256     0.000018140447     
32.904998779297     0.731478989124     0.000017865359     
33.009998321533     0.726363003254     0.000017594093     
33.115001678467     0.720915973186     0.000017315186     
33.220001220703     0.715799987316     0.000017070664     
33.325000762939     0.710518002510     0.000016795577     
33.430000305176     0.705236971378     0.000016497566     
33.534999847412     0.699954986572     0.000016230120     
33.639999389648     0.694674015045     0.000015962676     
33.744998931885     0.689392983913     0.000015699052     
33.849998474121     0.684110999107     0.000015431606     
33.955001831055     0.678995013237     0.000015187084     
34.060001373291     0.673713028431     0.000014934921     
34.165000915527     0.668267011642     0.000014652193     
34.270000457764     0.663150012493     0.000014388568     
34.375000000000     0.657868981361     0.000014132584     
34.479999542236     0.652588009834     0.000013872780     
34.584999084473     0.647306025028     0.000013624438     
34.689998626709     0.642024993896     0.000013387558     
34.794998168945     0.636743009090     0.000013139215     
34.900001525879     0.631627023220     0.000012879411     
35.005001068115     0.626344978809     0.000012623428     
35.110000610352     0.620899021626     0.000012367444     
35.215000152588     0.615782976151     0.000012115281     
35.319999694824     0.610500991344     0.000011866939     
