
Cycle 1
Physical Cycle 1
Step 1

Time (s),          Potential (V),         Current (A)
0.104999996722     0.002644000109     -0.000001419675     
0.209999993443     0.007931999862     -0.000001296892     
0.314999997616     0.013055000454     -0.000001189458     
0.419999986887     0.018342999741     -0.000001089697     
0.449999988079     0.028423000127     -0.000000843699     
0.555000007153     0.033711001277     -0.000000765808     
0.660000026226     0.038998998702     -0.000000692543     
0.764999985695     0.044286999851     -0.000000622749     
0.870000004768     0.049575001001     -0.000000557196     
0.975000023842     0.054698001593     -0.000000494729     
1.080000042915     0.059985999018     -0.000000433803     
1.184999942780     0.065274000168     -0.000000375577     
1.289999961853     0.070561997592     -0.000000319665     
1.394999980927     0.075850002468     -0.000000264909     
1.500000000000     0.081138998270     -0.000000211696     
1.605000019073     0.086260996759     -0.000000160411     
1.705000042915     0.092871002853     -0.000000088809     
1.809999942780     0.098159000278     -0.000000039846     
1.914999961853     0.103281997144     0.000000008189     
2.019999980927     0.108570002019     0.000000056181     
2.125000000000     0.113857999444     0.000000103583     
2.230000019073     0.118980996311     0.000000149718     
2.335000038147     0.124269001186     0.000000196233     
2.440000057220     0.129556998610     0.000000242157     
2.545000076294     0.134680002928     0.000000287068     
2.650000095367     0.139967992902     0.000000331726     
2.755000114441     0.145255997777     0.000000376890     
2.859999895096     0.150379002094     0.000000420366     
2.964999914169     0.155831992626     0.000000462998     
3.069999933243     0.160954996943     0.000000505546     
3.174999952316     0.166078001261     0.000000547038     
3.279999971390     0.171531006694     0.000000586588     
3.384999990463     0.176653996110     0.000000624999     
3.490000009537     0.181942000985     0.000000660835     
3.595000028610     0.187230005860     0.000000693590     
3.700000047684     0.192352995276     0.000000725120     
3.805000066757     0.197641000152     0.000000755132     
3.910000085831     0.202929005027     0.000000781766     
4.014999866486     0.208216995001     0.000000806923     
4.119999885559     0.213339999318     0.000000831404     
4.224999904633     0.218628004193     0.000000853860     
4.329999923706     0.223915994167     0.000000874416     
4.434999942780     0.229203999043     0.000000894339     
4.539999961853     0.234327003360     0.000000913207     
4.644999980927     0.239614993334     0.000000930682     
4.750000000000     0.244902998209     0.000000947819     
4.855000019073     0.250191003084     0.000000964238     
4.960000038147     0.255479007959     0.000000978843     
5.065000057220     0.260767012835     0.000000992646     
5.170000076294     0.265890002251     0.000001006279     
5.275000095367     0.271178007126     0.000001018225     
5.380000114441     0.276466012001     0.000001028482     
5.485000133514     0.281753987074     0.000001038316     
5.590000152588     0.287041991949     0.000001046843     
5.684999942780     0.294313013554     0.000001053853     
5.789999961853     0.299436002970     0.000001058095     
5.894999980927     0.304888993502     0.000001061565     
6.000000000000     0.310012012720     0.000001064650     
6.105000019073     0.315465003252     0.000001066964     
6.210000038147     0.320587992668     0.000001067349     
6.315000057220     0.325875997543     0.000001068120     
6.420000076294     0.331164002419     0.000001067735     
6.525000095367     0.336452007294     0.000001066578     
6.630000114441     0.341740012169     0.000001065421     
6.735000133514     0.346863001585     0.000001063879     
6.840000152588     0.352151006460     0.000001061179     
6.945000171661     0.357439011335     0.000001058095     
7.050000190735     0.362726986408     0.000001055010     
7.155000209808     0.368014991283     0.000001051154     
7.260000228882     0.373302996159     0.000001046141     
7.364999771118     0.378425985575     0.000001041514     
7.469999790192     0.383879005909     0.000001035730     
7.574999809265     0.389167994261     0.000001029946     
7.679999828339     0.394290000200     0.000001024547     
7.784999847412     0.399578005075     0.000001018763     
7.889999866486     0.404866009951     0.000001011437     
7.994999885559     0.410154014826     0.000001006809     
8.100000381470     0.415443003178     0.000001002568     
8.204999923706     0.420731008053     0.000000998712     
8.310000419617     0.425853013992     0.000000994085     
8.414999961853     0.431306988001     0.000000992542     
8.520000457764     0.436428993940     0.000000991000     
8.625000000000     0.441718012094     0.000000989843     
8.729999542236     0.447005987167     0.000000987529     
8.835000038147     0.452293992043     0.000000988300     
8.939999580383     0.457415997982     0.000000987529     
9.045000076294     0.462870001793     0.000000987144     
9.149999618530     0.468158006668     0.000000987529     
9.255000114441     0.473280996084     0.000000987915     
9.359999656677     0.478569000959     0.000000987915     
9.465000152588     0.483857005835     0.000000989457     
9.569999694824     0.489145010710     0.000000990614     
9.675000190735     0.494268000126     0.000000991385     
9.779999732971     0.499720990658     0.000000992542     
9.885000228882     0.504844009876     0.000000994470     
9.989999771118     0.510132014751     0.000000995241     
10.095000267029     0.515420019627     0.000000997169     
10.199999809265     0.520708024502     0.000000999097     
10.305000305176     0.525996029377     0.000001000254     
10.409999847412     0.531283974648     0.000001001411     
10.515000343323     0.536571979523     0.000001003339     
10.619999885559     0.541694998741     0.000001005267     
10.725000381470     0.546983003616     0.000001006424     
10.829999923706     0.552271008492     0.000001008352     
10.935000419617     0.557559013367     0.000001010280     
11.039999961853     0.562847018242     0.000001011051     
11.145000457764     0.568135023117     0.000001012979     
11.250000000000     0.573257982731     0.000001015293     
11.354999542236     0.578545987606     0.000001017221     
11.460000038147     0.583833992481     0.000001019534     
11.564999580383     0.589121997356     0.000001022619     
11.670000076294     0.594410002232     0.000001024547     
11.774999618530     0.599698007107     0.000001026475     
11.880000114441     0.604986011982     0.000001029560     
11.984999656677     0.610274016857     0.000001032645     
12.090000152588     0.615562021732     0.000001034958     
12.194999694824     0.620684981346     0.000001038043     
12.300000190735     0.625972986221     0.000001040742     
12.404999732971     0.631260991096     0.000001043827     
12.510000228882     0.636548995972     0.000001046912     
12.614999771118     0.641837000847     0.000001051154     
12.720000267029     0.647125005722     0.000001054624     
12.824999809265     0.652413010597     0.000001057709     
12.930000305176     0.657701015472     0.000001061565     
13.034999847412     0.662989020348     0.000001065807     
13.140000343323     0.668111979961     0.000001069277     
13.244999885559     0.673399984837     0.000001073904     
13.350000381470     0.678687989712     0.000001078532     
13.454999923706     0.683975994587     0.000001082388     
13.560000419617     0.689263999462     0.000001086629     
13.664999961853     0.694387018681     0.000001092028     
13.770000457764     0.699675023556     0.000001096269     
13.875000000000     0.705129027367     0.000001101668     
13.979999542236     0.710250973701     0.000001107837     
14.085000038147     0.715538978577     0.000001112850     
14.189999580383     0.720826983452     0.000001117477     
14.295000076294     0.725950002670     0.000001123262     
14.399999618530     0.731238007545     0.000001129046     
14.505000114441     0.736526012421     0.000001134058     
14.609999656677     0.741814017296     0.000001140228     
14.715000152588     0.747268021107     0.000001146783     
14.819999694824     0.752390980721     0.000001152953     
14.925000190735     0.757678985596     0.000001159123     
15.029999732971     0.762800991535     0.000001166449     
15.135000228882     0.768254995346     0.000001173390     
15.239999771118     0.773377001286     0.000001179560     
15.345000267029     0.778666019440     0.000001187272     
15.449999809265     0.783954024315     0.000001194598     
15.555000305176     0.789242029190     0.000001201539     
15.659999847412     0.794529974461     0.000001209251     
15.765000343323     0.799817979336     0.000001217349     
15.869999885559     0.805105984211     0.000001224675     
15.975000381470     0.810393989086     0.000001233158     
16.079999923706     0.815681993961     0.000001242413     
16.184999465942     0.820805013180     0.000001250896     
16.290000915527     0.826093018055     0.000001259765     
16.395000457764     0.831381022930     0.000001269405     
16.500000000000     0.836503982544     0.000001279045     
16.604999542236     0.841791987419     0.000001287528     
16.709999084473     0.847079992294     0.000001297168     
16.815000534058     0.852367997169     0.000001307194     
16.920000076294     0.857656002045     0.000001314521     
17.024999618530     0.862944006920     0.000001324161     
17.129999160767     0.868232011795     0.000001333801     
17.235000610352     0.873520016670     0.000001343055     
17.340000152588     0.878808021545     0.000001351924     
17.444999694824     0.883930981159     0.000001361564     
17.549999237061     0.889218986034     0.000001370047     
17.655000686646     0.894506990910     0.000001378145     
17.760000228882     0.899794995785     0.000001387014     
17.864999771118     0.905083000660     0.000001395883     
17.969999313354     0.910371005535     0.000001403981     
18.075000762939     0.915659010410     0.000001412849     
18.180000305176     0.920947015285     0.000001421333     
18.284999847412     0.926069974899     0.000001429045     
18.389999389648     0.931357979774     0.000001437528     
18.495000839233     0.936645984650     0.000001446397     
18.600000381470     0.941933989525     0.000001454109     
18.704999923706     0.947221994400     0.000001462207     
18.809999465942     0.952509999275     0.000001470690     
18.915000915527     0.957798004150     0.000001479173     
19.020000457764     0.963086009026     0.000001486885     
19.125000000000     0.968209028244     0.000001495368     
19.229999542236     0.973496973515     0.000001504237     
19.334999084473     0.978784978390     0.000001511949     
19.440000534058     0.984072983265     0.000001520433     
19.545000076294     0.989196002483     0.000001529301     
19.649999618530     0.994648993015     0.000001537785     
19.754999160767     0.999936997890     0.000001546268     
19.860000610352     1.005059957504     0.000001555908     
19.965000152588     1.010347962379     0.000001564777     
20.069999694824     1.015635967255     0.000001573646     
20.174999237061     1.020923972130     0.000001583286     
20.280000686646     1.026211977005     0.000001592926     
20.385000228882     1.031499981880     0.000001602566     
20.489999771118     1.036788940430     0.000001612592     
20.594999313354     1.041911005974     0.000001623389     
20.700000762939     1.047199010849     0.000001633414     
20.805000305176     1.052487015724     0.000001643440     
20.909999847412     1.057775020599     0.000001655394     
21.014999389648     1.063063979149     0.000001666576     
21.120000839233     1.068186044693     0.000001677759     
21.225000381470     1.073474049568     0.000001690098     
21.329999923706     1.078762054443     0.000001702823     
21.434999465942     1.084050059319     0.000001714777     
21.540000915527     1.089339017868     0.000001728273     
21.645000457764     1.094627022743     0.000001741769     
21.750000000000     1.099748969078     0.000001755265     
21.854999542236     1.105036973953     0.000001769918     
21.959999084473     1.110491037369     0.000001785342     
22.065000534058     1.115614056587     0.000001799995     
22.170000076294     1.120901942253     0.000001815419     
22.274999618530     1.126189947128     0.000001831614     
22.379999160767     1.131477952003     0.000001848966     
22.485000610352     1.136765956879     0.000001865547     
22.590000152588     1.141888976097     0.000001884056     
22.694999694824     1.147176980972     0.000001902565     
22.799999237061     1.152464985847     0.000001921074     
22.905000686646     1.157752990723     0.000001941126     
23.010000228882     1.163040995598     0.000001961948     
23.114999771118     1.168329000473     0.000001982771     
23.219999313354     1.173452019691     0.000002004750     
23.325000762939     1.178740024567     0.000002027886     
23.430000305176     1.184028029442     0.000002051408     
23.534999847412     1.189316034317     0.000002075315     
23.639999389648     1.194604039192     0.000002100765     
23.745000839233     1.198570013046     0.000002111176     
23.850000381470     1.194604039192     0.000002050251     
23.954999923706     1.189316034317     0.000001989326     
24.059999465942     1.184028029442     0.000001933413     
24.165000915527     1.178740024567     0.000001881357     
24.270000457764     1.173452019691     0.000001834313     
24.375000000000     1.168329000473     0.000001790740     
24.479999542236     1.162876009941     0.000001749095     
24.584999084473     1.157752990723     0.000001710535     
24.690000534058     1.152464985847     0.000001675445     
24.795000076294     1.147176980972     0.000001641898     
24.899999618530     1.141888976097     0.000001609893     
25.004999160767     1.136765956879     0.000001580972     
25.110000610352     1.131312012672     0.000001553209     
25.215000152588     1.126024007797     0.000001526602     
25.319999694824     1.120736002922     0.000001502309     
25.424999237061     1.115614056587     0.000001479559     
25.530000686646     1.110326051712     0.000001456808     
25.635000228882     1.105036973953     0.000001435986     
25.739999771118     1.099748969078     0.000001416705     
25.844999313354     1.094460964203     0.000001398196     
25.950000762939     1.089339017868     0.000001379688     
26.055000305176     1.084050059319     0.000001362721     
26.159999847412     1.078596949577     0.000001346911     
26.264999389648     1.073474049568     0.000001330716     
26.370000839233     1.068186044693     0.000001315677     
26.475000381470     1.062898039818     0.000001301410     
26.579999923706     1.057610034943     0.000001287143     
26.684999465942     1.052322030067     0.000001274032     
26.790000915527     1.047199010849     0.000001261693     
26.895000457764     1.041746020317     0.000001248583     
27.000000000000     1.036623001099     0.000001236243     
27.104999542236     1.031334996223     0.000001225061     
27.209999084473     1.026046991348     0.000001214264     
27.315000534058     1.020758986473     0.000001202310     
27.420000076294     1.015470981598     0.000001192284     
27.524999618530     1.010347962379     0.000001182259     
27.629999160767     1.005059957504     0.000001171848     
27.735000610352     0.999772012234     0.000001162593     
27.840000152588     0.994484007359     0.000001153724     
27.944999694824     0.989196002483     0.000001144084     
28.049999237061     0.983907997608     0.000001134830     
28.155000686646     0.978619992733     0.000001126732     
28.260000228882     0.973331987858     0.000001118249     
28.364999771118     0.968209028244     0.000001109380     
28.469999313354     0.962921023369     0.000001101668     
28.575000762939     0.957633018494     0.000001093956     
28.680000305176     0.952345013618     0.000001085472     
28.784999847412     0.947221994400     0.000001078146     
28.889999389648     0.941933989525     0.000001070434     
28.995000839233     0.936480998993     0.000001062722     
29.100000381470     0.931357979774     0.000001055395     
29.204999923706     0.926069974899     0.000001048840     
29.309999465942     0.920782029629     0.000001041514     
29.415000915527     0.915494024754     0.000001033802     
29.520000457764     0.910206019878     0.000001027632     
29.625000000000     0.905083000660     0.000001020306     
29.729999542236     0.899794995785     0.000001013365     
29.834999084473     0.894506990910     0.000001006809     
29.940000534058     0.889218986034     0.000001000254     
30.045000076294     0.883930981159     0.000000993313     
30.149999618530     0.878642976284     0.000000987144     
30.254999160767     0.873354971409     0.000000980974     
30.360000610352     0.868232011795     0.000000974033     
30.465000152588     0.862944006920     0.000000967478     
30.569999694824     0.857656002045     0.000000962079     
30.674999237061     0.852367997169     0.000000955139     
30.780000686646     0.847079992294     0.000000948969     
30.885000228882     0.841791987419     0.000000943185     
30.989999771118     0.836503982544     0.000000937401     
31.094999313354     0.831215977669     0.000000930846     
31.200000762939     0.826093018055     0.000000925062     
31.305000305176     0.820805013180     0.000000919278     
31.409999847412     0.815517008305     0.000000913108     
31.514999389648     0.810229003429     0.000000907324     
31.620000839233     0.804940998554     0.000000901925     
31.725000381470     0.799651980400     0.000000895756     
31.829999923706     0.794529974461     0.000000889972     
31.934999465942     0.789242029190     0.000000884959     
32.040000915527     0.783954024315     0.000000879560     
32.145000457764     0.778666019440     0.000000873005     
32.250000000000     0.773377001286     0.000000867992     
32.354999542236     0.768088996410     0.000000862594     
32.459999084473     0.762966990471     0.000000856810     
32.564998626709     0.757512986660     0.000000851411     
32.669998168945     0.752390980721     0.000000846013     
32.775001525879     0.747102022171     0.000000840229     
32.880001068115     0.741814017296     0.000000834830     
32.985000610352     0.736526012421     0.000000829818     
33.090000152588     0.731238007545     0.000000824034     
33.194999694824     0.726116001606     0.000000818250     
33.299999237061     0.720661997795     0.000000813622     
33.404998779297     0.715538978577     0.000000808224     
33.509998321533     0.710250973701     0.000000802440     
33.615001678467     0.704963028431     0.000000797427     
33.720001220703     0.699675023556     0.000000792029     
33.825000762939     0.694387018681     0.000000786245     
33.930000305176     0.689099013805     0.000000781232     
34.034999847412     0.683975994587     0.000000776219     
34.139999389648     0.678687989712     0.000000770435     
34.244998931885     0.673399984837     0.000000765036     
34.349998474121     0.668111979961     0.000000760409     
34.455001831055     0.662823975086     0.000000755011     
34.560001373291     0.657535970211     0.000000748841     
34.665000915527     0.652248024940     0.000000744214     
34.770000457764     0.647125005722     0.000000739201     
34.875000000000     0.641837000847     0.000000733417     
34.979999542236     0.636548995972     0.000000728404     
35.084999084473     0.631096005440     0.000000723006     
35.189998626709     0.625808000565     0.000000717607     
35.294998168945     0.620684981346     0.000000712209     
35.400001525879     0.615396976471     0.000000707967     
