
Cycle 1
Physical Cycle 1
Step 1

Time (s),          Potential (V),         Current (A)
0.104999996722     0.002475999994     -0.000000355320     
0.209999993443     0.007922000252     -0.000000324755     
0.314999997616     0.013203999959     -0.000000301831     
0.419999986887     0.018319999799     -0.000000278907     
0.449999988079     0.028387999162     -0.000000220422     
0.555000007153     0.033668998629     -0.000000201573     
0.660000026226     0.038950998336     -0.000000184647     
0.764999985695     0.044231999665     -0.000000169260     
0.795000016689     0.054464999586     -0.000000139675     
0.899999976158     0.059581000358     -0.000000126381     
1.004999995232     0.064862996340     -0.000000114979     
1.110000014305     0.070143997669     -0.000000103831     
1.215000033379     0.075425997376     -0.000000092430     
1.320000052452     0.080706998706     -0.000000082837     
1.424999952316     0.085988000035     -0.000000073414     
1.529999971390     0.091104999185     -0.000000063317     
1.634999990463     0.096386000514     -0.000000054019     
1.740000009537     0.101668000221     -0.000000045142     
1.845000028610     0.106949001551     -0.000000035129     
1.950000047684     0.112065002322     -0.000000025158     
2.055000066757     0.117512002587     -0.000000015230     
2.160000085831     0.122628003359     -0.000000003828     
2.275000095367     0.133521005511     0.000000021972     
2.380000114441     0.138803005219     0.000000035751     
2.484999895096     0.143919005990     0.000000050366     
2.589999914169     0.149036005139     0.000000067206     
2.605000019073     0.160258993506     0.000000107575     
2.710000038147     0.165374994278     0.000000127601     
2.815000057220     0.170655995607     0.000000148510     
2.920000076294     0.175937995315     0.000000171102     
3.025000095367     0.181218996644     0.000000194031     
3.130000114441     0.186500996351     0.000000216412     
3.234999895096     0.191781997681     0.000000239888     
3.339999914169     0.196898996830     0.000000262774     
3.444999933243     0.202179998159     0.000000284441     
3.549999952316     0.207460999489     0.000000306191     
3.654999971390     0.212742999196     0.000000327185     
3.759999990463     0.218024000525     0.000000346369     
3.865000009537     0.223306000233     0.000000365175     
3.970000028610     0.228422001004     0.000000383517     
4.074999809265     0.233704000711     0.000000399925     
4.179999828339     0.238985002041     0.000000415407     
4.284999847412     0.244266003370     0.000000431057     
4.389999866486     0.249548003078     0.000000444772     
4.494999885559     0.254828989506     0.000000457646     
4.599999904633     0.260111004114     0.000000470730     
4.704999923706     0.265226989985     0.000000482931     
4.809999942780     0.270509004593     0.000000493995     
4.914999961853     0.275790005922     0.000000505439     
5.019999980927     0.281071007252     0.000000516125     
5.125000000000     0.286352992058     0.000000526137     
5.230000019073     0.291633993387     0.000000536361     
5.335000038147     0.296750992537     0.000000546121     
5.440000057220     0.302031993866     0.000000555040     
5.545000076294     0.307314008474     0.000000564758     
5.650000095367     0.312595009804     0.000000574182     
5.755000114441     0.317876011133     0.000000582554     
5.860000133514     0.323157995939     0.000000591473     
5.965000152588     0.328438997269     0.000000600771     
6.070000171661     0.333555996418     0.000000608933     
6.175000190735     0.338836997747     0.000000617221     
6.280000209808     0.344119012356     0.000000626687     
6.385000228882     0.349400013685     0.000000635017     
6.489999771118     0.354680985212     0.000000643263     
6.594999790192     0.359962999821     0.000000652728     
6.699999809265     0.365244001150     0.000000661311     
6.804999828339     0.370525985956     0.000000669683     
6.909999847412     0.375806987286     0.000000679023     
7.014999866486     0.380923986435     0.000000687816     
7.119999885559     0.386204987764     0.000000696482     
7.224999904633     0.391487002373     0.000000706200     
7.329999923706     0.396768003702     0.000000715624     
7.434999942780     0.402049005032     0.000000724712     
7.539999961853     0.407330989838     0.000000734977     
7.644999980927     0.412611991167     0.000000745158     
7.750000000000     0.417728990316     0.000000754750     
7.855000019073     0.423009991646     0.000000765646     
7.960000038147     0.428292006254     0.000000776921     
8.064999580383     0.433573007584     0.000000787565     
8.170000076294     0.438854008913     0.000000799429     
8.274999618530     0.443971008062     0.000000811966     
8.380000114441     0.449252009392     0.000000823788     
8.484999656677     0.454533994198     0.000000836494     
8.590000152588     0.459814995527     0.000000850714     
8.694999694824     0.465097010136     0.000000863840     
8.800000190735     0.470378011465     0.000000877681     
8.904999732971     0.475493997335     0.000000893163     
9.010000228882     0.480940997601     0.000000908014     
9.114999771118     0.486221998930     0.000000923202     
9.220000267029     0.491338998079     0.000000939946     
9.324999809265     0.496785014868     0.000000956648     
9.430000305176     0.501901984215     0.000000973266     
9.534999847412     0.507018029690     0.000000991020     
9.640000343323     0.512463986874     0.000001008816     
9.744999885559     0.517745971680     0.000001026822     
9.810000419617     0.526657998562     0.000001061335     
9.914999961853     0.531774997711     0.000001080569     
10.020000457764     0.537056028843     0.000001099803     
10.125000000000     0.542338013649     0.000001120191     
10.229999542236     0.547618985176     0.000001140579     
10.335000038147     0.552900016308     0.000001160967     
10.439999580383     0.558182001114     0.000001182509     
10.545000076294     0.563297986984     0.000001204821     
10.649999618530     0.568579971790     0.000001226363     
10.755000114441     0.574025988579     0.000001248675     
10.859999656677     0.579142987728     0.000001271755     
10.965000152588     0.584424018860     0.000001294452     
11.069999694824     0.589704990387     0.000001317532     
11.175000190735     0.594986975193     0.000001341767     
11.279999732971     0.600103020668     0.000001364464     
11.385000228882     0.605385005474     0.000001388314     
11.489999771118     0.610665977001     0.000001412933     
11.595000267029     0.616113007069     0.000001436014     
11.699999809265     0.621228992939     0.000001458710     
11.805000305176     0.626510024071     0.000001483330     
11.909999847412     0.631792008877     0.000001506411     
12.015000343323     0.637072980404     0.000001528722     
12.119999885559     0.642355024815     0.000001552188     
12.225000381470     0.647635996342     0.000001574499     
12.329999923706     0.652752995491     0.000001596041     
12.435000419617     0.658034026623     0.000001618353     
12.539999961853     0.663314998150     0.000001639510     
12.645000457764     0.668596982956     0.000001660283     
12.750000000000     0.674042999744     0.000001681056     
12.854999542236     0.679159998894     0.000001701059     
12.960000038147     0.684440970421     0.000001720293     
13.064999580383     0.689723014832     0.000001739912     
13.170000076294     0.695003986359     0.000001759146     
13.274999618530     0.700285971165     0.000001776842     
13.380000114441     0.705567002296     0.000001795691     
13.484999656677     0.710847973824     0.000001814156     
13.590000152588     0.716130018234     0.000001831466     
13.694999694824     0.721246004105     0.000001848392     
13.800000190735     0.726527988911     0.000001866472     
13.904999732971     0.731809020042     0.000001883398     
14.010000228882     0.737091004848     0.000001900709     
14.114999771118     0.742371976376     0.000001918404     
14.220000267029     0.747653007507     0.000001935330     
14.324999809265     0.752934992313     0.000001951871     
14.430000305176     0.758216023445     0.000001969182     
14.534999847412     0.763333022594     0.000001986108     
14.640000343323     0.768613994122     0.000002003419     
14.744999885559     0.773895978928     0.000002021499     
14.850000381470     0.779177010059     0.000002039579     
14.954999923706     0.784623026848     0.000002056889     
15.060000419617     0.789905011654     0.000002075354     
15.164999961853     0.795020997524     0.000002093819     
15.270000457764     0.800302982330     0.000002111514     
15.375000000000     0.805419027805     0.000002129979     
15.479999542236     0.810865998268     0.000002149213     
15.585000038147     0.816147029400     0.000002167677     
15.689999580383     0.821263015270     0.000002186527     
15.795000076294     0.826709985733     0.000002206146     
15.899999618530     0.831825971603     0.000002224995     
16.004999160767     0.837108016014     0.000002244614     
16.110000610352     0.842388987541     0.000002264232     
16.215000152588     0.847670972347     0.000002283851     
16.319999694824     0.852952003479     0.000002302700     
16.424999237061     0.858067989349     0.000002323473     
16.530000686646     0.863515019417     0.000002343477     
16.635000228882     0.868631005287     0.000002363095     
16.739999771118     0.873912990093     0.000002383483     
16.844999313354     0.879194021225     0.000002403102     
16.950000762939     0.884476006031     0.000002423106     
17.055000305176     0.889756977558     0.000002443494     
17.159999847412     0.895038008690     0.000002464651     
17.264999389648     0.900319993496     0.000002484655     
17.370000839233     0.905601024628     0.000002505043     
17.475000381470     0.910718023777     0.000002526200     
17.579999923706     0.915998995304     0.000002546204     
17.684999465942     0.921280980110     0.000002568130     
17.790000915527     0.926562011242     0.000002589672     
17.895000457764     0.931843996048     0.000002610445     
18.000000000000     0.937125027180     0.000002631987     
18.104999542236     0.942405998707     0.000002655068     
18.209999084473     0.947687983513     0.000002676995     
18.315000534058     0.952969014645     0.000002699691     
18.420000076294     0.958086013794     0.000002723541     
18.524999618530     0.963531970978     0.000002747007     
18.629999160767     0.968814015388     0.000002775858     
18.735000610352     0.973930001259     0.000002801247     
18.840000152588     0.979210972786     0.000002827021     
18.944999694824     0.984493017197     0.000002852794     
19.049999237061     0.989773988724     0.000002877029     
19.155000686646     0.995055973530     0.000002900495     
19.260000228882     1.000337004662     0.000002928192     
19.364999771118     1.005619049072     0.000002958197     
19.469999313354     1.010900020599     0.000002988587     
19.575000762939     1.016016006470     0.000003018592     
19.680000305176     1.021298050880     0.000003050905     
19.784999847412     1.026579022408     0.000003084757     
19.889999389648     1.031860947609     0.000003118994     
19.995000839233     1.037142038345     0.000003155154     
20.100000381470     1.042423963547     0.000003192852     
20.204999923706     1.047705054283     0.000003230166     
20.309999465942     1.052821040154     0.000003269019     
20.415000915527     1.058102965355     0.000003310949     
20.520000457764     1.063384056091     0.000003353264     
20.625000000000     1.068665981293     0.000003396733     
20.729999542236     1.073946952820     0.000003442510     
20.834999084473     1.079228997231     0.000003489057     
20.940000534058     1.084509968758     0.000003537142     
21.045000076294     1.089791059494     0.000003587535     
21.149999618530     1.095072984695     0.000003639082     
21.254999160767     1.100188970566     0.000003689860     
21.360000610352     1.105471014977     0.000003743715     
21.465000152588     1.110751986504     0.000003799110     
21.569999694824     1.116034030914     0.000003855658     
21.674999237061     1.121315002441     0.000003913744     
21.780000686646     1.126595973969     0.000003973755     
21.885000228882     1.131878018379     0.000004033765     
21.989999771118     1.136994004250     0.000004096468     
22.094999313354     1.142441034317     0.000004159171     
22.200000762939     1.147557020187     0.000004223028     
22.305000305176     1.152838945389     0.000004289193     
22.409999847412     1.158120036125     0.000004356512     
22.514999389648     1.163401961327     0.000004424216     
22.620000839233     1.168683052063     0.000004493459     
22.725000381470     1.173964023590     0.000004563471     
22.829999923706     1.179245948792     0.000004633867     
22.934999465942     1.184527039528     0.000004705418     
23.040000915527     1.189808964729     0.000004778507     
23.145000457764     1.194924950600     0.000004852366     
23.250000000000     1.198390960693     0.000004860060     
23.354999542236     1.193770051003     0.000004629251     
23.459999084473     1.188652992249     0.000004396519     
23.565000534058     1.183372020721     0.000004179559     
23.670000076294     1.178256034851     0.000003976832     
23.774999618530     1.172973990440     0.000003784876     
23.879999160767     1.167693018913     0.000003603692     
23.985000610352     1.162410974503     0.000003432509     
24.090000152588     1.157130002975     0.000003270173     
24.194999694824     1.151847958565     0.000003113993     
24.299999237061     1.146566987038     0.000002967814     
24.405000686646     1.141451001167     0.000002828559     
24.510000228882     1.136168956757     0.000002695075     
24.614999771118     1.130887985229     0.000002568900     
24.719999313354     1.125605940819     0.000002449649     
24.825000762939     1.120324969292     0.000002334629     
24.930000305176     1.115043044090     0.000002226149     
25.034999847412     1.109927058220     0.000002123054     
25.139999389648     1.104480028152     0.000002024191     
25.245000839233     1.099364042282     0.000001931099     
25.350000381470     1.094082951546     0.000001843007     
25.454999923706     1.088801026344     0.000001759146     
25.559999465942     1.083520054817     0.000001679133     
25.665000915527     1.078238010406     0.000001604120     
25.770000457764     1.072957038879     0.000001532954     
25.875000000000     1.067674994469     0.000001465250     
25.979999542236     1.062559008598     0.000001402162     
26.084999084473     1.057278037071     0.000001342537     
26.190000534058     1.051995992661     0.000001285604     
26.295000076294     1.046550035477     0.000001232903     
26.399999618530     1.041432976723     0.000001183279     
26.504999160767     1.036152005196     0.000001135578     
26.610000610352     1.030869960785     0.000001092109     
26.715000152588     1.025588989258     0.000001050948     
26.819999694824     1.020473003387     0.000001011711     
26.924999237061     1.015190958977     0.000000975551     
27.030000686646     1.009909987450     0.000000942084     
27.135000228882     1.004627943039     0.000000909771     
27.239999771118     0.999346971512     0.000000879765     
27.344999313354     0.994064986706     0.000000852068     
27.450000762939     0.988784015179     0.000000825525     
27.555000305176     0.983502984047     0.000000799752     
27.659999847412     0.978220999241     0.000000777440     
27.764999389648     0.973105013371     0.000000755513     
27.870000839233     0.967823028564     0.000000734356     
27.975000381470     0.962541997433     0.000000715507     
28.079999923706     0.957260012627     0.000000697427     
28.184999465942     0.951978981495     0.000000679731     
28.290000915527     0.946698009968     0.000000663575     
28.395000457764     0.941416025162     0.000000648187     
28.500000000000     0.936134994030     0.000000632800     
28.604999542236     0.931017994881     0.000000619336     
28.709999084473     0.925737023354     0.000000605873     
28.815000534058     0.920454978943     0.000000592793     
28.920000076294     0.915174007416     0.000000580484     
29.024999618530     0.909892976284     0.000000569328     
29.129999160767     0.904610991478     0.000000557403     
29.235000610352     0.899330019951     0.000000546632     
29.340000152588     0.894047975540     0.000000537015     
29.444999694824     0.888767004013     0.000000526244     
29.549999237061     0.883485019207     0.000000516627     
29.655000686646     0.878203988075     0.000000508164     
29.760000228882     0.873088002205     0.000000498547     
29.864999771118     0.867806017399     0.000000489314     
29.969999313354     0.862524986267     0.000000481236     
30.075000762939     0.857243001461     0.000000472388     
30.180000305176     0.851961970329     0.000000464310     
30.284999847412     0.846679985523     0.000000457001     
30.389999389648     0.841399013996     0.000000449307     
30.495000839233     0.836283028126     0.000000441229     
30.600000381470     0.831000983715     0.000000433920     
30.704999923706     0.825720012188     0.000000426996     
30.809999465942     0.820438027382     0.000000419687     
30.915000915527     0.815156996250     0.000000412763     
31.020000457764     0.809875011444     0.000000405838     
31.125000000000     0.804428994656     0.000000399299     
31.229999542236     0.799311995506     0.000000392759     
31.334999084473     0.794031023979     0.000000386604     
31.440000534058     0.788749992847     0.000000379680     
31.545000076294     0.783632993698     0.000000373141     
31.649999618530     0.778352022171     0.000000368140     
31.754999160767     0.773069977760     0.000000361215     
31.860000610352     0.767789006233     0.000000355061     
31.954999923706     0.760692000389     0.000000348430     
32.060001373291     0.755411028862     0.000000343256     
32.165000915527     0.750294029713     0.000000337534     
32.270000457764     0.745012998581     0.000000331350     
32.375000000000     0.739731013775     0.000000325880     
32.479999542236     0.734449982643     0.000000320622     
32.584999084473     0.729167997837     0.000000314143     
32.689998626709     0.723887026310     0.000000308758     
32.794998168945     0.718770980835     0.000000303919     
32.900001525879     0.713488996029     0.000000297777     
33.005001068115     0.708042979240     0.000000291971     
33.110000610352     0.702925980091     0.000000287344     
33.215000152588     0.697645008564     0.000000281327     
33.319999694824     0.692363023758     0.000000275732     
33.424999237061     0.687081992626     0.000000270726     
33.529998779297     0.681800007820     0.000000265467     
33.634998321533     0.676518976688     0.000000259535     
33.740001678467     0.671402990818     0.000000254823     
33.845001220703     0.666121006012     0.000000249480     
33.950000762939     0.660674989223     0.000000243926     
34.055000305176     0.655557990074     0.000000239004     
34.159999847412     0.650277018547     0.000000233956     
34.264999389648     0.644994974136     0.000000228192     
34.369998931885     0.639714002609     0.000000223606     
34.474998474121     0.634432971478     0.000000218726     
34.580001831055     0.629150986671     0.000000213004     
34.685001373291     0.623870015144     0.000000208208     
34.790000915527     0.618753015995     0.000000203623     
34.895000457764     0.613471984863     0.000000197817     
35.000000000000     0.608190000057     0.000000192895     
35.104999542236     0.602909028530     0.000000188435     
35.209999084473     0.597627997398     0.000000183008     
