
Cycle 1
Physical Cycle 1
Step 1

Time (s),          Potential (V),         Current (A)
0.104999996722     0.002644000109     -0.000002923764     
0.209999993443     0.007931999862     -0.000002708894     
0.314999997616     0.013220000081     -0.000002509372     
0.419999986887     0.018342999741     -0.000002332872     
0.449999988079     0.028589000925     -0.000001958092     
0.555000007153     0.033877000213     -0.000001813105     
0.660000026226     0.038998998702     -0.000001677373     
0.764999985695     0.044286999851     -0.000001550895     
0.870000004768     0.049575001001     -0.000001430973     
0.975000023842     0.054864000529     -0.000001316834     
1.080000042915     0.060152001679     -0.000001210408     
1.184999942780     0.065274000168     -0.000001109765     
1.289999961853     0.070561997592     -0.000001013750     
1.394999980927     0.075850002468     -0.000000923519     
1.500000000000     0.080972999334     -0.000000838687     
1.605000019073     0.086427003145     -0.000000756939     
1.710000038147     0.091715000570     -0.000000679818     
1.815000057220     0.096836999059     -0.000000607710     
1.919999957085     0.102124996483     -0.000000538302     
2.025000095367     0.107413999736     -0.000000472364     
2.130000114441     0.112701997161     -0.000000410282     
2.234999895096     0.117990002036     -0.000000351284     
2.339999914169     0.123277999461     -0.000000294215     
2.444999933243     0.128399997950     -0.000000240231     
2.549999952316     0.133689001203     -0.000000188560     
2.595000028610     0.143107995391     -0.000000094465     
2.700000047684     0.148230999708     -0.000000048837     
2.805000066757     0.153519004583     -0.000000005445     
2.910000085831     0.158806994557     0.000000037482     
3.015000104904     0.164094999433     0.000000078721     
3.119999885559     0.169218003750     0.000000117765     
3.224999904633     0.174505993724     0.000000155712     
3.329999923706     0.179793998599     0.000000193067     
3.434999942780     0.184917002916     0.000000227975     
3.539999961853     0.190204992890     0.000000261869     
3.644999980927     0.195492997766     0.000000294919     
3.750000000000     0.200781002641     0.000000325986     
3.855000019073     0.205902993679     0.000000355195     
3.960000038147     0.211191996932     0.000000384235     
4.065000057220     0.216480001807     0.000000411460     
4.170000076294     0.221601992846     0.000000436575     
4.275000095367     0.226889997721     0.000000460677     
4.380000114441     0.232178002596     0.000000484145     
4.485000133514     0.237467005849     0.000000505419     
4.590000152588     0.242588996887     0.000000525806     
4.695000171661     0.247877001762     0.000000545392     
4.800000190735     0.253165006638     0.000000563879     
4.905000209808     0.258453994989     0.000000580932     
5.010000228882     0.263741999865     0.000000598491     
5.114999771118     0.268864005804     0.000000614995     
5.219999790192     0.274152010679     0.000000630191     
5.324999809265     0.279439985752     0.000000645175     
5.429999828339     0.284729003906     0.000000660540     
5.534999847412     0.290017008781     0.000000674004     
5.639999866486     0.295139014721     0.000000687258     
5.744999885559     0.300592988729     0.000000700386     
5.849999904633     0.305714994669     0.000000712289     
5.954999923706     0.311004012823     0.000000722714     
6.059999942780     0.316291987896     0.000000733858     
6.164999961853     0.321579992771     0.000000743482     
6.269999980927     0.326701998711     0.000000751628     
6.375000000000     0.331990003586     0.000000759817     
6.480000019073     0.337278991938     0.000000768005     
6.585000038147     0.342566996813     0.000000774548     
6.690000057220     0.347855001688     0.000000781133     
6.795000076294     0.353143006563     0.000000787422     
6.900000095367     0.358265012503     0.000000792909     
7.005000114441     0.363554000854     0.000000797890     
7.110000133514     0.368842005730     0.000000803715     
7.215000152588     0.374130010605     0.000000808316     
7.320000171661     0.379417985678     0.000000812326     
7.425000190735     0.384705990553     0.000000816547     
7.530000209808     0.389993995428     0.000000821063     
7.635000228882     0.395117014647     0.000000823933     
7.739999771118     0.400404989719     0.000000826677     
7.844999790192     0.405692994595     0.000000829716     
7.949999809265     0.410980999470     0.000000831362     
8.055000305176     0.416269004345     0.000000832333     
8.159999847412     0.421557009220     0.000000833937     
8.265000343323     0.426845014095     0.000000834106     
8.369999885559     0.432132989168     0.000000833599     
8.475000381470     0.437256008387     0.000000833431     
8.579999923706     0.442544013262     0.000000833304     
8.685000419617     0.447831988335     0.000000831658     
8.789999961853     0.453119993210     0.000000830687     
8.895000457764     0.458407998085     0.000000829800     
9.000000000000     0.463696002960     0.000000828450     
9.104999542236     0.468818992376     0.000000827057     
9.210000038147     0.474106997252     0.000000826424     
9.314999580383     0.479395002127     0.000000824946     
9.420000076294     0.484683007002     0.000000823258     
9.524999618530     0.489971011877     0.000000822414     
9.630000114441     0.495258986950     0.000000821654     
9.734999656677     0.500546991825     0.000000819586     
9.840000152588     0.505834996700     0.000000818446     
9.944999694824     0.510958015919     0.000000817729     
10.050000190735     0.516246020794     0.000000816378     
10.154999732971     0.521534025669     0.000000814858     
10.260000228882     0.526821970940     0.000000814394     
10.364999771118     0.532109975815     0.000000813085     
10.470000267029     0.537397980690     0.000000811819     
10.574999809265     0.542520999908     0.000000811481     
10.680000305176     0.547809004784     0.000000811144     
10.784999847412     0.553097009659     0.000000809666     
10.890000343323     0.558385014534     0.000000809455     
10.994999885559     0.563673019409     0.000000809540     
11.100000381470     0.568961024284     0.000000809202     
11.204999923706     0.574249029160     0.000000809118     
11.310000419617     0.579536974430     0.000000809835     
11.414999961853     0.584824979305     0.000000809878     
11.520000457764     0.589947998524     0.000000810426     
11.625000000000     0.595236003399     0.000000811735     
11.729999542236     0.600524008274     0.000000813085     
11.835000038147     0.605812013149     0.000000813634     
11.939999580383     0.611100018024     0.000000815449     
12.045000076294     0.616222977638     0.000000817729     
12.149999618530     0.621510982513     0.000000819586     
12.255000114441     0.626798987389     0.000000821401     
12.359999656677     0.632086992264     0.000000824482     
12.465000152588     0.637374997139     0.000000826930     
12.569999694824     0.642663002014     0.000000829716     
12.675000190735     0.647952020168     0.000000833219     
12.779999732971     0.653240025043     0.000000836596     
12.885000228882     0.658527970314     0.000000839340     
12.989999771118     0.663649976254     0.000000843476     
13.095000267029     0.668937981129     0.000000847486     
13.199999809265     0.674226999283     0.000000850990     
13.305000305176     0.679515004158     0.000000854789     
13.409999847412     0.684803009033     0.000000859432     
13.515000343323     0.690091013908     0.000000863146     
13.619999885559     0.695379018784     0.000000867409     
13.725000381470     0.700501978397     0.000000871968     
13.829999923706     0.705789983273     0.000000875978     
13.935000419617     0.711077988148     0.000000879566     
14.039999961853     0.716365993023     0.000000884335     
14.145000457764     0.721653997898     0.000000888683     
14.250000000000     0.726942002773     0.000000892144     
14.354999542236     0.732065021992     0.000000895985     
14.460000038147     0.737353026867     0.000000900375     
14.564999580383     0.742640972137     0.000000903921     
14.670000076294     0.747928977013     0.000000907424     
14.774999618530     0.753216981888     0.000000911350     
14.880000114441     0.758504986763     0.000000914811     
14.984999656677     0.763628005981     0.000000917766     
15.090000152588     0.768916010857     0.000000921902     
15.194999694824     0.774204015732     0.000000925448     
15.300000190735     0.779657006264     0.000000928107     
15.404999732971     0.784780025482     0.000000931695     
15.510000228882     0.790067970753     0.000000935705     
15.614999771118     0.795190989971     0.000000938659     
15.720000267029     0.800478994846     0.000000942205     
15.824999809265     0.805931985378     0.000000946046     
15.930000305176     0.811055004597     0.000000949465     
16.034999847412     0.816343009472     0.000000952757     
16.139999389648     0.821631014347     0.000000957147     
16.245000839233     0.826753973961     0.000000961115     
16.350000381470     0.832041978836     0.000000964407     
16.454999923706     0.837329983711     0.000000968459     
16.559999465942     0.842617988586     0.000000973229     
16.665000915527     0.847905993462     0.000000977070     
16.770000457764     0.853193998337     0.000000981038     
16.875000000000     0.858482003212     0.000000985639     
16.979999542236     0.863605022430     0.000000989817     
17.084999084473     0.868893027306     0.000000993701     
17.190000534058     0.874180972576     0.000000998344     
17.295000076294     0.879468977451     0.000001002438     
17.399999618530     0.884756982327     0.000001005773     
17.504999160767     0.889880001545     0.000001009867     
17.610000610352     0.895168006420     0.000001014299     
17.715000152588     0.900456011295     0.000001017380     
17.819999694824     0.905744016171     0.000001020757     
17.924999237061     0.911032021046     0.000001024852     
18.030000686646     0.916320025921     0.000001028059     
18.135000228882     0.921607971191     0.000001031099     
18.239999771118     0.926730990410     0.000001034897     
18.344999313354     0.932183980942     0.000001038190     
18.450000762939     0.937471985817     0.000001041102     
18.555000305176     0.942595005035     0.000001044774     
18.670000076294     0.954163014889     0.000001049611     
18.774999618530     0.959451019764     0.000001052311     
18.879999160767     0.964739024639     0.000001054624     
18.985000610352     0.970027029514     0.000001058480     
19.090000152588     0.975314974785     0.000001061951     
19.194999694824     0.980602979660     0.000001064650     
19.299999237061     0.985890984535     0.000001067735     
19.405000686646     0.991014003754     0.000001071976     
19.510000228882     0.996302008629     0.000001075061     
19.614999771118     1.001590013504     0.000001078532     
19.719999313354     1.006878018379     0.000001082773     
19.825000762939     1.012166023254     0.000001086629     
19.930000305176     1.017454028130     0.000001090100     
20.034999847412     1.022742033005     0.000001094727     
20.139999389648     1.028030037880     0.000001099354     
20.245000839233     1.033153057098     0.000001103596     
20.350000381470     1.038440942764     0.000001107837     
20.454999923706     1.043728947639     0.000001113621     
20.559999465942     1.049016952515     0.000001117863     
20.665000915527     1.054304957390     0.000001122876     
20.770000457764     1.059592962265     0.000001129046     
20.875000000000     1.064880967140     0.000001134830     
20.979999542236     1.070003986359     0.000001139842     
21.084999084473     1.075291991234     0.000001146783     
21.190000534058     1.080579996109     0.000001153339     
21.295000076294     1.085868000984     0.000001159508     
21.399999618530     1.091156005859     0.000001167220     
21.504999160767     1.096279025078     0.000001175704     
21.610000610352     1.101567029953     0.000001183030     
21.715000152588     1.107020020485     0.000001191513     
21.819999694824     1.112143039703     0.000001201153     
21.924999237061     1.117431044579     0.000001210793     
22.030000686646     1.122719049454     0.000001220433     
22.135000228882     1.128007054329     0.000001231616     
22.239999771118     1.133295059204     0.000001242798     
22.344999313354     1.138417959213     0.000001253981     
22.450000762939     1.143705964088     0.000001267091     
22.555000305176     1.148993968964     0.000001280973     
22.659999847412     1.154281973839     0.000001294469     
22.764999389648     1.159569978714     0.000001309122     
22.870000839233     1.164859056473     0.000001325318     
22.975000381470     1.170146942139     0.000001341513     
23.079999923706     1.175269007683     0.000001358479     
23.184999465942     1.180722951889     0.000001376603     
23.290000915527     1.185845017433     0.000001395497     
23.395000457764     1.191133975983     0.000001415163     
23.500000000000     1.196421980858     0.000001436757     
23.604999542236     1.197908997536     0.000001403209     
23.709999084473     1.192950963974     0.000001301410     
23.815000534058     1.187662959099     0.000001211565     
23.920000076294     1.182374954224     0.000001130974     
24.024999618530     1.177086949348     0.000001057323     
24.129999160767     1.171798944473     0.000000989843     
24.235000610352     1.166511058807     0.000000928532     
24.340000152588     1.161223053932     0.000000871848     
24.444999694824     1.155935049057     0.000000819406     
24.549999237061     1.150812029839     0.000000771592     
24.655000686646     1.145524024963     0.000000727247     
24.760000228882     1.140236020088     0.000000685217     
24.864999771118     1.134948015213     0.000000646656     
24.969999313354     1.129660010338     0.000000611952     
25.075000762939     1.124536991119     0.000000578404     
25.180000305176     1.119248986244     0.000000547171     
25.284999847412     1.113960981369     0.000000519022     
25.389999389648     1.108672976494     0.000000492029     
25.495000839233     1.103384971619     0.000000466580     
25.600000381470     1.098096966743     0.000000443443     
25.704999923706     1.092808961868     0.000000421464     
25.809999465942     1.087520956993     0.000000400256     
25.915000915527     1.082232952118     0.000000381361     
26.020000457764     1.077110052109     0.000000364009     
26.125000000000     1.071822047234     0.000000346271     
26.229999542236     1.066534042358     0.000000330076     
26.334999084473     1.061246037483     0.000000315809     
26.420000076294     1.053809046745     0.000000303530     
26.524999618530     1.048521041870     0.000000290487     
26.629999160767     1.043398976326     0.000000278542     
26.735000610352     1.038110971451     0.000000267019     
26.840000152588     1.032822012901     0.000000255453     
26.944999694824     1.027534008026     0.000000245787     
27.049999237061     1.022246003151     0.000000236079     
27.155000686646     1.016957998276     0.000000226117     
27.260000228882     1.011669993401     0.000000217211     
27.364999771118     1.006381988525     0.000000209445     
27.469999313354     1.001258969307     0.000000201171     
27.575000762939     0.995971024036     0.000000193447     
27.680000305176     0.990683019161     0.000000186356     
27.784999847412     0.985395014286     0.000000179433     
27.889999389648     0.980271995068     0.000000172300     
27.995000839233     0.974983990192     0.000000166517     
28.100000381470     0.969695985317     0.000000160608     
28.204999923706     0.964407980442     0.000000154234     
28.309999465942     0.959119975567     0.000000148578     
28.415000915527     0.953831970692     0.000000143893     
28.520000457764     0.948544025421     0.000000138321     
28.625000000000     0.943421006203     0.000000133129     
28.729999542236     0.938133001328     0.000000128908     
28.834999084473     0.932844996452     0.000000124054     
28.940000534058     0.927556991577     0.000000119242     
29.045000076294     0.922268986702     0.000000115486     
29.149999618530     0.917146027088     0.000000111265     
29.254999160767     0.911692976952     0.000000106579     
29.360000610352     0.906570017338     0.000000102823     
29.465000152588     0.901282012463     0.000000099530     
29.569999694824     0.895994007587     0.000000095225     
29.674999237061     0.890706002712     0.000000091511     
29.780000686646     0.885582983494     0.000000088303     
29.885000228882     0.880129992962     0.000000084757     
29.989999771118     0.874841988087     0.000000081085     
30.094999313354     0.869719028473     0.000000078299     
30.200000762939     0.864431023598     0.000000075049     
30.305000305176     0.859143018723     0.000000071123     
30.409999847412     0.853855013847     0.000000068464     
30.514999389648     0.848567008972     0.000000065805     
30.620000839233     0.843443989754     0.000000062302     
30.725000381470     0.838155984879     0.000000059262     
30.829999923706     0.832867980003     0.000000057068     
30.934999465942     0.827579975128     0.000000054113     
31.040000915527     0.822291970253     0.000000050905     
31.145000457764     0.817169010639     0.000000048752     
31.250000000000     0.811881005764     0.000000046177     
31.354999542236     0.806593000889     0.000000042927     
31.459999084473     0.801304996014     0.000000041028     
31.565000534058     0.796016991138     0.000000038875     
31.670000076294     0.790728986263     0.000000035709     
31.774999618530     0.785606026649     0.000000033346     
31.879999160767     0.780318021774     0.000000031657     
31.985000610352     0.775030016899     0.000000029167     
32.099998474121     0.763628005981     0.000000024786     
32.205001831055     0.758340001106     0.000000022792     
32.310001373291     0.753216981888     0.000000021375     
32.415000915527     0.748094022274     0.000000019116     
32.520000457764     0.742806017399     0.000000016904     
32.625000000000     0.737353026867     0.000000015460     
32.729999542236     0.732230007648     0.000000013589     
32.834999084473     0.726942002773     0.000000011185     
32.939998626709     0.721818983555     0.000000009814     
33.044998168945     0.716530978680     0.000000008331     
33.150001525879     0.711242973804     0.000000006169     
33.255001068115     0.705955028534     0.000000004421     
33.360000610352     0.700667023659     0.000000003403     
33.465000152588     0.695544004440     0.000000001621     
33.569999694824     0.690255999565     -0.000000000227     
33.674999237061     0.684803009033     -0.000000001152     
33.779998779297     0.679679989815     -0.000000002566     
33.884998321533     0.674391984940     -0.000000004417     
33.990001678467     0.669103980064     -0.000000005224     
34.095001220703     0.663981020451     -0.000000006261     
34.200000762939     0.658693015575     -0.000000008054     
34.305000305176     0.653405010700     -0.000000009145     
34.409999847412     0.648117005825     -0.000000009718     
34.514999389648     0.642829000950     -0.000000011269     
34.619998931885     0.637705981731     -0.000000012587     
34.724998474121     0.632417976856     -0.000000013232     
34.830001831055     0.627129971981     -0.000000014526     
34.935001373291     0.622007012367     -0.000000016117     
35.040000915527     0.616554021835     -0.000000016892     
35.145000457764     0.611431002617     -0.000000018045     
35.250000000000     0.606142997742     -0.000000019877     
35.354999542236     0.600854992867     -0.000000021075     
