
Cycle 1
Physical Cycle 1
Step 1

Time (s),          Potential (V),         Current (A)
0.104999996722     0.002475999994     -0.000000213956     
0.209999993443     0.007757000159     -0.000000198674     
0.314999997616     0.013039000332     -0.000000183391     
0.419999986887     0.018319999799     -0.000000168109     
0.449999988079     0.028387999162     -0.000000126175     
0.555000007153     0.033504001796     -0.000000115020     
0.660000026226     0.038786001503     -0.000000103479     
0.764999985695     0.044066999108     -0.000000092323     
0.795000016689     0.054134998471     -0.000000071184     
0.899999976158     0.059415999800     -0.000000061970     
1.004999995232     0.064698003232     -0.000000052168     
1.110000014305     0.069978997111     -0.000000042744     
1.215000033379     0.075259998441     -0.000000034288     
1.320000052452     0.080541998148     -0.000000024990     
1.424999952316     0.085657998919     -0.000000015482     
1.529999971390     0.090939998627     -0.000000006689     
1.549999952316     0.101502999663     0.000000013102     
1.654999971390     0.106619000435     0.000000023654     
1.759999990463     0.111735001206     0.000000034662     
1.865000009537     0.117017000914     0.000000047505     
1.970000028610     0.122133001685     0.000000061176     
2.075000047684     0.127250000834     0.000000075814     
2.140000104904     0.135996997356     0.000000105892     
2.244999885559     0.141277998686     0.000000125708     
2.349999904633     0.146559998393     0.000000147080     
2.454999923706     0.151840999722     0.000000171228     
2.559999942780     0.156957998872     0.000000196975     
2.664999961853     0.162239000201     0.000000224195     
2.769999980927     0.167520999908     0.000000253392     
2.875000000000     0.172802001238     0.000000283894     
2.980000019073     0.178083002567     0.000000314900     
3.085000038147     0.183365002275     0.000000347757     
3.190000057220     0.188481003046     0.000000380993     
3.295000076294     0.193763002753     0.000000413893     
3.400000095367     0.199044004083     0.000000447339     
3.505000114441     0.204161003232     0.000000481374     
3.609999895096     0.209607005119     0.000000513853     
3.714999914169     0.214723005891     0.000000545995     
3.819999933243     0.220005005598     0.000000578684     
3.924999952316     0.225286006927     0.000000609900     
4.030000209808     0.230403006077     0.000000639813     
4.135000228882     0.235684007406     0.000000669851     
4.239999771118     0.240966007113     0.000000698544     
4.344999790192     0.246246993542     0.000000725763     
4.449999809265     0.251527994871     0.000000752310     
4.554999828339     0.256644994020     0.000000777847     
4.659999847412     0.261925995350     0.000000801954     
4.764999866486     0.267208009958     0.000000825345     
4.869999885559     0.272489011288     0.000000847558     
4.974999904633     0.277770996094     0.000000868257     
5.079999923706     0.282887011766     0.000000888367     
5.184999942780     0.288332998753     0.000000907678     
5.289999961853     0.293449997902     0.000000924927     
5.394999980927     0.298730999231     0.000000941629     
5.500000000000     0.304013013840     0.000000958162     
5.605000019073     0.309293985367     0.000000972677     
5.710000038147     0.314411014318     0.000000986518     
5.815000057220     0.319691985846     0.000001000570     
5.920000076294     0.325138002634     0.000001012812     
6.025000095367     0.330255001783     0.000001024129     
6.130000114441     0.335536003113     0.000001035404     
6.164999961853     0.345934003592     0.000001056719     
6.269999980927     0.351051002741     0.000001065566     
6.375000000000     0.356332004070     0.000001073260     
6.480000019073     0.361613005400     0.000001081338     
6.585000038147     0.366894990206     0.000001089032     
6.690000057220     0.372175991535     0.000001095956     
6.795000076294     0.377458006144     0.000001102496     
6.900000095367     0.382739007473     0.000001109420     
7.005000114441     0.388020992279     0.000001115575     
7.110000133514     0.393301993608     0.000001120960     
7.215000152588     0.398582994938     0.000001127500     
7.320000171661     0.403699994087     0.000001133270     
7.425000190735     0.408980995417     0.000001138271     
7.530000209808     0.414263010025     0.000001144426     
7.635000228882     0.419544011354     0.000001150196     
7.739999771118     0.424991011620     0.000001155197     
7.844999790192     0.430106997490     0.000001160967     
7.949999809265     0.435387998819     0.000001167122     
8.055000305176     0.440670013428     0.000001172508     
8.159999847412     0.445951014757     0.000001178663     
8.265000343323     0.451068013906     0.000001185202     
8.369999885559     0.456514000893     0.000001190972     
8.475000381470     0.461795985699     0.000001197512     
8.579999923706     0.466912001371     0.000001204436     
8.685000419617     0.472193002701     0.000001210976     
8.789999961853     0.477474987507     0.000001217900     
8.895000457764     0.482755988836     0.000001225978     
9.000000000000     0.488038003445     0.000001232903     
9.104999542236     0.493153989315     0.000001240596     
9.210000038147     0.498436003923     0.000001249444     
9.314999580383     0.503881990910     0.000001257907     
9.420000076294     0.508997976780     0.000001266370     
9.524999618530     0.514445006847     0.000001275602     
9.630000114441     0.519560992718     0.000001285604     
9.734999656677     0.524842977524     0.000001294836     
9.840000152588     0.530124008656     0.000001305607     
9.944999694824     0.535405993462     0.000001316378     
10.050000190735     0.540687024593     0.000001327149     
10.154999732971     0.545969009399     0.000001338305     
10.260000228882     0.551249980927     0.000001349846     
10.364999771118     0.556531012058     0.000001361771     
10.470000267029     0.561812996864     0.000001374081     
10.574999809265     0.566928982735     0.000001387160     
10.680000305176     0.572211027145     0.000001399085     
10.784999847412     0.577491998672     0.000001411779     
10.890000343323     0.582939028740     0.000001425628     
10.994999885559     0.588055014610     0.000001438707     
11.100000381470     0.593335986137     0.000001451786     
11.204999923706     0.598617970943     0.000001465250     
11.310000419617     0.603899002075     0.000001478714     
11.414999961853     0.609180986881     0.000001491408     
11.520000457764     0.614462018013     0.000001504872     
11.625000000000     0.619744002819     0.000001517951     
11.729999542236     0.625024974346     0.000001530261     
11.835000038147     0.630306005478     0.000001542955     
11.939999580383     0.635423004627     0.000001555265     
12.045000076294     0.640703976154     0.000001566036     
12.149999618530     0.645986020565     0.000001577577     
12.255000114441     0.651266992092     0.000001588733     
12.359999656677     0.656548976898     0.000001598734     
12.465000152588     0.661830008030     0.000001608736     
12.569999694824     0.667110979557     0.000001618738     
12.675000190735     0.672227978706     0.000001627585     
12.779999732971     0.677509009838     0.000001635664     
12.885000228882     0.682955980301     0.000001644511     
12.989999771118     0.688072025776     0.000001651820     
13.095000267029     0.693354010582     0.000001658744     
13.199999809265     0.698634982109     0.000001665669     
13.305000305176     0.703916013241     0.000001672593     
13.409999847412     0.709197998047     0.000001677979     
13.515000343323     0.714479029179     0.000001684133     
13.619999885559     0.719761013985     0.000001689134     
13.725000381470     0.725041985512     0.000001693750     
13.829999923706     0.730323970318     0.000001698751     
13.935000419617     0.735440015793     0.000001703752     
14.039999961853     0.740722000599     0.000001707599     
14.145000457764     0.746002972126     0.000001711830     
14.250000000000     0.751284003258     0.000001716062     
14.354999542236     0.756565988064     0.000001719524     
14.460000038147     0.761847019196     0.000001722986     
14.564999580383     0.767129004002     0.000001727218     
14.670000076294     0.772409975529     0.000001730680     
14.774999618530     0.777526974678     0.000001734142     
14.880000114441     0.782808005810     0.000001738373     
14.984999656677     0.788254022598     0.000001742220     
15.090000152588     0.793371021748     0.000001745682     
15.194999694824     0.798651993275     0.000001749914     
15.300000190735     0.803933978081     0.000001753761     
15.404999732971     0.809215009212     0.000001757607     
15.510000228882     0.814496994019     0.000001761839     
15.614999771118     0.819778025150     0.000001766840     
15.720000267029     0.824894011021     0.000001771456     
15.824999809265     0.830340981483     0.000001777226     
15.930000305176     0.835622012615     0.000001782612     
16.034999847412     0.840739011765     0.000001787997     
16.139999389648     0.846019983292     0.000001794152     
16.245000839233     0.851302027702     0.000001801076     
16.350000381470     0.856747984886     0.000001807616     
16.454999923706     0.861863970757     0.000001814925     
16.559999465942     0.867146015167     0.000001823003     
16.665000915527     0.872426986694     0.000001830697     
16.770000457764     0.877708971500     0.000001838390     
16.875000000000     0.882990002632     0.000001847623     
16.979999542236     0.888271987438     0.000001856471     
17.084999084473     0.893387973309     0.000001865318     
17.190000534058     0.898669004440     0.000001875705     
17.295000076294     0.903950989246     0.000001885706     
17.399999618530     0.909232020378     0.000001896093     
17.504999160767     0.914514005184     0.000001907248     
17.610000610352     0.919794976711     0.000001918789     
17.715000152588     0.925077021122     0.000001929945     
17.819999694824     0.930357992649     0.000001941870     
17.924999237061     0.935473978519     0.000001954179     
18.030000686646     0.940756022930     0.000001966489     
18.135000228882     0.946201980114     0.000001979953     
18.239999771118     0.951318979263     0.000001993802     
18.344999313354     0.956764996052     0.000002006881     
18.450000762939     0.961881995201     0.000002021114     
18.555000305176     0.967163026333     0.000002036501     
18.659999847412     0.972445011139     0.000002051119     
18.764999389648     0.977725982666     0.000002065737     
18.870000839233     0.983007013798     0.000002082278     
18.975000381470     0.988288998604     0.000002099204     
19.079999923706     0.993570029736     0.000002115361     
19.184999465942     0.998687028885     0.000002133441     
19.290000915527     1.004132986069     0.000002151521     
19.395000457764     1.009250044823     0.000002169986     
19.500000000000     1.014531016350     0.000002189220     
19.604999542236     1.019811987877     0.000002208838     
19.709999084473     1.025094032288     0.000002228842     
19.815000534058     1.030375003815     0.000002250769     
19.920000076294     1.035657048225     0.000002272695     
20.024999618530     1.040938019753     0.000002295007     
20.129999160767     1.046054959297     0.000002319242     
20.235000610352     1.051336050034     0.000002343861     
20.340000152588     1.056617021561     0.000002368481     
20.444999694824     1.061898946762     0.000002394255     
20.549999237061     1.067180037498     0.000002421567     
20.655000686646     1.072461962700     0.000002448879     
20.760000228882     1.077743053436     0.000002477346     
20.864999771118     1.083024978638     0.000002507735     
20.969999313354     1.088140964508     0.000002537741     
21.075000762939     1.093422055244     0.000002568515     
21.180000305176     1.098703980446     0.000002601213     
21.284999847412     1.103984951973     0.000002633911     
21.389999389648     1.109266996384     0.000002667378     
21.495000839233     1.114547967911     0.000002702769     
21.600000381470     1.119830012321     0.000002738544     
21.704999923706     1.125110983849     0.000002774704     
21.809999465942     1.130226969719     0.000002812403     
21.915000915527     1.135673999786     0.000002851256     
22.020000457764     1.140954971313     0.000002889339     
22.125000000000     1.146072030067     0.000002929346     
22.229999542236     1.151353001595     0.000002970122     
22.334999084473     1.156635046005     0.000003011283     
22.440000534058     1.161751031876     0.000003053213     
22.545000076294     1.167197942734     0.000003096682     
22.649999618530     1.172479033470     0.000003139766     
22.754999160767     1.177760004997     0.000003184005     
22.860000610352     1.182876944542     0.000003229782     
22.965000152588     1.188323020935     0.000003274789     
23.069999694824     1.193439960480     0.000003320566     
23.174999237061     1.198225975037     0.000003354418     
23.280000686646     1.195420026779     0.000003216318     
23.385000228882     1.190139055252     0.000003042057     
23.489999771118     1.184857010841     0.000002880876     
23.594999313354     1.179741024971     0.000002730466     
23.700000762939     1.174460053444     0.000002589288     
23.805000305176     1.169178009033     0.000002456958     
23.909999847412     1.163897037506     0.000002331936     
24.014999389648     1.158614993095     0.000002214609     
24.120000839233     1.153499007225     0.000002103820     
24.225000381470     1.148216962814     0.000001999572     
24.329999923706     1.142771005630     0.000001900709     
24.434999465942     1.137653946877     0.000001808001     
24.540000915527     1.132372975349     0.000001720678     
24.645000457764     1.127092003822     0.000001637202     
24.750000000000     1.121809959412     0.000001558343     
24.854999542236     1.116528987885     0.000001484869     
24.959999084473     1.111246943474     0.000001414472     
25.065000534058     1.105965971947     0.000001348307     
25.170000076294     1.100849032402     0.000001286373     
25.274999618530     1.095567941666     0.000001227902     
25.379999160767     1.090286970139     0.000001172123     
25.485000610352     1.085005044937     0.000001120576     
25.590000152588     1.079723954201     0.000001071337     
25.694999694824     1.074442028999     0.000001025175     
25.799999237061     1.069161057472     0.000000981706     
25.905000686646     1.063879013062     0.000000941314     
26.010000228882     1.058763027191     0.000000902077     
26.114999771118     1.053482055664     0.000000866686     
26.219999313354     1.048200011253     0.000000832450     
26.325000762939     1.042919039726     0.000000800136     
26.430000305176     1.037636995316     0.000000770516     
26.534999847412     1.032356023788     0.000000742819     
26.639999389648     1.027073979378     0.000000715891     
26.745000839233     1.021793007851     0.000000691272     
26.850000381470     1.016677021980     0.000000668576     
26.954999923706     1.011394977570     0.000000646264     
27.059999465942     1.006114006042     0.000000625107     
27.165000915527     1.000831961632     0.000000606257     
27.270000457764     0.995550990105     0.000000587793     
27.375000000000     0.990269005299     0.000000570097     
27.479999542236     0.984987974167     0.000000553941     
27.584999084473     0.979707002640     0.000000538553     
27.690000534058     0.974590003490     0.000000523551     
27.795000076294     0.969308972359     0.000000510087     
27.899999618530     0.964026987553     0.000000497008     
28.004999160767     0.958746016026     0.000000484313     
28.110000610352     0.953463971615     0.000000472388     
28.215000152588     0.948183000088     0.000000461233     
28.319999694824     0.942902028561     0.000000450077     
28.424999237061     0.937619984150     0.000000440075     
28.530000686646     0.932339012623     0.000000430073     
28.635000228882     0.927057027817     0.000000420456     
28.739999771118     0.921940982342     0.000000411224     
28.844999313354     0.916658997536     0.000000403146     
28.950000762939     0.911378026009     0.000000394298     
29.055000305176     0.906096994877     0.000000386220     
29.159999847412     0.900815010071     0.000000378911     
29.264999389648     0.895533978939     0.000000371217     
29.370000839233     0.890251994133     0.000000363524     
29.475000381470     0.884971022606     0.000000356984     
29.579999923706     0.879688978195     0.000000350444     
29.690000534058     0.873583018780     0.000000343803     
29.795000076294     0.868300974369     0.000000337240     
29.899999618530     0.863020002842     0.000000331770     
30.004999160767     0.857738018036     0.000000325628     
30.110000610352     0.852456986904     0.000000319317     
30.215000152588     0.847175002098     0.000000313974     
30.319999694824     0.841893970966     0.000000308631     
30.424999237061     0.836612999439     0.000000302573     
30.530000686646     0.831496000290     0.000000297651     
30.635000228882     0.826215028763     0.000000292392     
30.739999771118     0.820932984352     0.000000286965     
30.844999313354     0.815652012825     0.000000282127     
30.950000762939     0.810370028019     0.000000277289     
31.055000305176     0.805088996887     0.000000272072     
31.159999847412     0.799808025360     0.000000267570     
31.264999389648     0.794525980949     0.000000262942     
31.370000839233     0.789409995079     0.000000257852     
31.475000381470     0.784128010273     0.000000253434     
31.579999923706     0.778846979141     0.000000249396     
31.684999465942     0.773564994335     0.000000244305     
31.790000915527     0.768284022808     0.000000239677     
31.895000457764     0.763002991676     0.000000236059     
32.000000000000     0.757721006870     0.000000231516     
32.104999542236     0.752439975739     0.000000226846     
32.209999084473     0.747157990932     0.000000222975     
32.314998626709     0.742042005062     0.000000218810     
32.419998168945     0.736760020256     0.000000214140     
32.525001525879     0.731478989124     0.000000210144     
32.630001068115     0.726198017597     0.000000206315     
32.735000610352     0.720915973186     0.000000201940     
32.840000152588     0.715635001659     0.000000198027     
32.944999694824     0.710518002510     0.000000194157     
33.049999237061     0.705071985722     0.000000189697     
33.154998779297     0.699790000916     0.000000185953     
33.259998321533     0.694509029388     0.000000182167     
33.365001678467     0.689392983913     0.000000177749     
33.470001220703     0.684110999107     0.000000173963     
33.575000762939     0.678830027580     0.000000170345     
33.680000305176     0.673547983170     0.000000165969     
33.784999847412     0.668267011642     0.000000162015     
33.889999389648     0.662985026836     0.000000158733     
33.994998931885     0.657703995705     0.000000154316     
34.099998474121     0.652422010899     0.000000150193     
34.205001831055     0.647306025028     0.000000147037     
34.310001373291     0.641860008240     0.000000142957     
34.415000915527     0.636743009090     0.000000138707     
34.520000457764     0.631296992302     0.000000135216     
34.625000000000     0.626179993153     0.000000131345     
34.729999542236     0.620899021626     0.000000127138     
34.834999084473     0.615616977215     0.000000123478     
34.939998626709     0.610336005688     0.000000119733     
35.044998168945     0.605054974556     0.000000115442     
35.150001525879     0.599772989750     0.000000111866     
