
Cycle 1
Physical Cycle 1
Step 1

Time (s),          Potential (V),         Current (A)
0.104999996722     0.002644000109     -0.000005076298     
0.209999993443     0.007931999862     -0.000004665743     
0.314999997616     0.013055000454     -0.000004301232     
0.419999986887     0.018342999741     -0.000003971254     
0.524999976158     0.023631000891     -0.000003664297     
0.629999995232     0.028919000179     -0.000003380362     
0.735000014305     0.034207001328     -0.000003115612     
0.839999973774     0.039494998753     -0.000002866209     
0.875000000000     0.049410000443     -0.000002355649     
0.980000019073     0.054698001593     -0.000002143953     
1.085000038147     0.059820998460     -0.000001944210     
1.190000057220     0.065108999610     -0.000001753722     
1.294999957085     0.070396997035     -0.000001573646     
1.399999976158     0.075685001910     -0.000001404366     
1.504999995232     0.080807998776     -0.000001243955     
1.610000014305     0.086096003652     -0.000001090871     
1.715000033379     0.091384001076     -0.000000944727     
1.820000052452     0.096671998501     -0.000000805139     
1.924999952316     0.101960003376     -0.000000668636     
2.029999971390     0.107083000243     -0.000000536759     
2.134999990463     0.112370997667     -0.000000407197     
2.240000009537     0.117659002542     -0.000000276477     
2.345000028610     0.122946999967     -0.000000147300     
2.450000047684     0.128234997392     -0.000000019280     
2.555000066757     0.133523002267     0.000000109126     
2.625000000000     0.141289994121     0.000000301377     
2.730000019073     0.146412998438     0.000000423363     
2.835000038147     0.151701003313     0.000000541128     
2.940000057220     0.156823992729     0.000000657121     
3.045000076294     0.161946997046     0.000000767710     
3.150000095367     0.167235001922     0.000000872601     
3.255000114441     0.172523006797     0.000000969683     
3.319999933243     0.181281000376     0.000001122105     
3.424999952316     0.186569005251     0.000001195369     
3.529999971390     0.191691994667     0.000001264007     
3.634999990463     0.196979999542     0.000001326860     
3.740000009537     0.202268004417     0.000001382772     
3.845000028610     0.207555994391     0.000001434443     
3.950000047684     0.212843999267     0.000001483029     
4.054999828339     0.218132004142     0.000001527373     
4.159999847412     0.223419994116     0.000001564391     
4.264999866486     0.228542998433     0.000001592155     
4.369999885559     0.233831003308     0.000001610664     
4.474999904633     0.239118993282     0.000001620304     
4.579999923706     0.244406998158     0.000001621075     
4.684999942780     0.249695003033     0.000001615677     
4.789999961853     0.254817992449     0.000001602566     
4.894999980927     0.260105997324     0.000001582900     
5.000000000000     0.265394002199     0.000001558993     
5.105000019073     0.270682007074     0.000001530844     
5.210000038147     0.275970011950     0.000001498839     
5.315000057220     0.281257987022     0.000001465291     
5.420000076294     0.286545991898     0.000001430587     
5.525000095367     0.291833996773     0.000001393955     
5.630000114441     0.297122001648     0.000001357323     
5.735000133514     0.302410006523     0.000001321847     
5.840000152588     0.307532995939     0.000001285986     
5.945000171661     0.312821000814     0.000001250896     
6.050000190735     0.318109005690     0.000001218891     
6.155000209808     0.323397010565     0.000001186500     
6.260000228882     0.328684985638     0.000001155267     
6.364999771118     0.333808004856     0.000001126346     
6.469999790192     0.339262008667     0.000001098197     
6.574999809265     0.344384014606     0.000001069277     
6.679999828339     0.349671989679     0.000001041899     
6.784999847412     0.354959994555     0.000001013365     
6.889999866486     0.360247999430     0.000000984444     
6.994999885559     0.365536987782     0.000000955910     
7.099999904633     0.370824992657     0.000000929303     
7.204999923706     0.376112997532     0.000000903853     
7.309999942780     0.381235003471     0.000000882645     
7.414999961853     0.386523008347     0.000000865679     
7.519999980927     0.391977012157     0.000000852183     
7.625000000000     0.397100001574     0.000000840229     
7.730000019073     0.402388006449     0.000000831360     
7.835000038147     0.407676011324     0.000000823648     
7.940000057220     0.412963986397     0.000000815550     
8.045000076294     0.418251991272     0.000000809381     
8.149999618530     0.423539996147     0.000000804753     
8.255000114441     0.428662985563     0.000000799741     
8.359999656677     0.433950990438     0.000000795499     
8.465000152588     0.439238995314     0.000000793185     
8.569999694824     0.444527000189     0.000000790486     
8.675000190735     0.449815005064     0.000000787787     
8.779999732971     0.455103009939     0.000000787016     
8.885000228882     0.460391014814     0.000000786245     
8.989999771118     0.465514004230     0.000000785473     
9.095000267029     0.470802009106     0.000000785859     
9.199999809265     0.476090013981     0.000000786630     
9.305000305176     0.481377989054     0.000000786630     
9.409999847412     0.486665993929     0.000000787787     
9.515000343323     0.491953998804     0.000000789329     
9.619999885559     0.497076988220     0.000000790486     
9.725000381470     0.502364993095     0.000000791643     
9.829999923706     0.507652997971     0.000000793185     
9.935000419617     0.512941002846     0.000000794728     
10.039999961853     0.518229007721     0.000000795499     
10.145000457764     0.523517012596     0.000000797427     
10.250000000000     0.528805017471     0.000000798969     
10.354999542236     0.534093022346     0.000000799355     
10.460000038147     0.539215981960     0.000000800512     
10.564999580383     0.544503986835     0.000000802054     
10.670000076294     0.549791991711     0.000000802825     
10.774999618530     0.555079996586     0.000000803597     
10.880000114441     0.560368001461     0.000000805525     
10.984999656677     0.565656006336     0.000000805910     
11.090000152588     0.570944011211     0.000000806681     
11.194999694824     0.576232016087     0.000000808224     
11.300000190735     0.581354975700     0.000000810152     
11.404999732971     0.586642980576     0.000000810538     
11.510000228882     0.591930985451     0.000000812466     
11.614999771118     0.597218990326     0.000000814394     
11.720000267029     0.602506995201     0.000000815550     
11.824999809265     0.607630014420     0.000000817478     
11.930000305176     0.613083004951     0.000000820178     
12.034999847412     0.618206024170     0.000000822106     
12.140000343323     0.623494029045     0.000000824419     
12.244999885559     0.628781974316     0.000000827504     
12.350000381470     0.634069979191     0.000000830974     
12.454999923706     0.639357984066     0.000000833288     
12.560000419617     0.644481003284     0.000000837144     
12.664999961853     0.649769008160     0.000000840615     
12.770000457764     0.655223011971     0.000000844085     
12.875000000000     0.660345017910     0.000000847555     
12.979999542236     0.665633022785     0.000000852568     
13.085000038147     0.670921027660     0.000000856039     
13.189999580383     0.676209986210     0.000000860280     
13.295000076294     0.681497991085     0.000000865293     
13.399999618530     0.686785995960     0.000000869535     
13.505000114441     0.692074000835     0.000000874162     
13.609999656677     0.697362005711     0.000000879560     
13.715000152588     0.702485024929     0.000000884573     
13.819999694824     0.707772970200     0.000000888815     
13.925000190735     0.712894976139     0.000000894213     
14.029999732971     0.718182981014     0.000000899612     
14.135000228882     0.723636984825     0.000000904239     
14.239999771118     0.728924989700     0.000000909637     
14.345000267029     0.734048008919     0.000000915422     
14.449999809265     0.739336013794     0.000000920434     
14.555000305176     0.744624018669     0.000000925447     
14.659999847412     0.749912023544     0.000000931617     
14.765000343323     0.755200028419     0.000000937015     
14.869999885559     0.760322988033     0.000000942028     
14.975000381470     0.765610992908     0.000000947812     
15.079999923706     0.770898997784     0.000000953982     
15.185000419617     0.776187002659     0.000000958995     
15.289999961853     0.781475007534     0.000000965164     
15.395000457764     0.786763012409     0.000000970948     
15.500000000000     0.792051017284     0.000000977118     
15.604999542236     0.797339022160     0.000000982131     
15.710000038147     0.802627027035     0.000000989457     
15.814999580383     0.807749986649     0.000000994856     
15.920000076294     0.813037991524     0.000001001025     
16.024999618530     0.818325996399     0.000001007195     
16.129999160767     0.823614001274     0.000001013750     
16.235000610352     0.828902006149     0.000001019534     
16.340000152588     0.834190011024     0.000001026090     
16.444999694824     0.839478015900     0.000001032645     
16.549999237061     0.844600975513     0.000001038429     
16.655000686646     0.849888980389     0.000001044599     
16.760000228882     0.855176985264     0.000001051154     
16.864999771118     0.860464990139     0.000001056552     
16.969999313354     0.865752995014     0.000001062336     
17.075000762939     0.870876014233     0.000001068506     
17.180000305176     0.876164019108     0.000001074290     
17.284999847412     0.881452023983     0.000001078917     
17.389999389648     0.886740028858     0.000001085087     
17.495000839233     0.892027974129     0.000001089714     
17.600000381470     0.897315979004     0.000001094341     
17.704999923706     0.902603983879     0.000001099354     
17.809999465942     0.907727003098     0.000001104367     
17.915000915527     0.913015007973     0.000001108609     
18.020000457764     0.918303012848     0.000001112465     
18.125000000000     0.923591017723     0.000001117092     
18.229999542236     0.928879022598     0.000001121334     
18.334999084473     0.934167027473     0.000001124804     
18.440000534058     0.939454972744     0.000001129431     
18.545000076294     0.944577991962     0.000001133673     
18.649999618530     0.949865996838     0.000001137143     
18.754999160767     0.955154001713     0.000001141770     
18.860000610352     0.960442006588     0.000001146012     
18.965000152588     0.965730011463     0.000001149097     
19.069999694824     0.971018016338     0.000001154110     
19.174999237061     0.976306021214     0.000001158737     
19.280000686646     0.981594979763     0.000001163364     
19.385000228882     0.986716985703     0.000001167220     
19.489999771118     0.992170989513     0.000001172233     
19.594999313354     0.997292995453     0.000001177246     
19.700000762939     1.002581000328     0.000001182259     
19.805000305176     1.007869958878     0.000001187657     
19.909999847412     1.013157963753     0.000001193827     
20.014999389648     1.018280029297     0.000001199225     
20.120000839233     1.023733973503     0.000001205395     
20.225000381470     1.028856039047     0.000001211950     
20.329999923706     1.034144997597     0.000001218891     
20.434999465942     1.039597988129     0.000001225446     
20.540000915527     1.044721007347     0.000001233544     
20.645000457764     1.049842953682     0.000001241256     
20.750000000000     1.055130958557     0.000001248968     
20.854999542236     1.060420036316     0.000001258223     
20.959999084473     1.065708041191     0.000001267863     
21.065000534058     1.071161031723     0.000001276732     
21.170000076294     1.076284050941     0.000001287528     
21.274999618530     1.081572055817     0.000001298711     
21.379999160767     1.086859941483     0.000001309893     
21.485000610352     1.091982960701     0.000001321461     
21.590000152588     1.097270965576     0.000001334958     
21.694999694824     1.102558970451     0.000001348068     
21.799999237061     1.107846975327     0.000001361950     
21.905000686646     1.113134980202     0.000001377374     
22.010000228882     1.118422985077     0.000001393184     
22.114999771118     1.123710989952     0.000001409379     
22.219999313354     1.128998994827     0.000001427502     
22.325000762939     1.134122014046     0.000001446782     
22.430000305176     1.139410018921     0.000001466063     
22.534999847412     1.144698023796     0.000001486885     
22.639999389648     1.149986028671     0.000001509250     
22.745000839233     1.155274033546     0.000001531615     
22.850000381470     1.160562038422     0.000001556294     
22.954999923706     1.165685057640     0.000001582900     
23.059999465942     1.170972943306     0.000001609893     
23.165000915527     1.176260948181     0.000001637656     
23.270000457764     1.181548953056     0.000001668504     
23.375000000000     1.186836957932     0.000001701280     
23.479999542236     1.192124962807     0.000001734442     
23.584999084473     1.197247982025     0.000001769532     
23.690000534058     1.197082996368     0.000001679687     
23.795000076294     1.191794991493     0.000001535086     
23.899999618530     1.186506032944     0.000001411307     
24.004999160767     1.181218028069     0.000001303724     
24.110000610352     1.176095962524     0.000001206937     
24.215000152588     1.170642018318     0.000001120562     
24.319999694824     1.165519952774     0.000001044599     
24.424999237061     1.160230994225     0.000000974804     
24.530000686646     1.154942989349     0.000000911565     
24.635000228882     1.149654984474     0.000000855267     
24.739999771118     1.144533038139     0.000000804368     
24.844999313354     1.139245033264     0.000000756553     
24.950000762939     1.133955955505     0.000000713751     
25.055000305176     1.128667950630     0.000000674034     
25.159999847412     1.123379945755     0.000000637787     
25.264999389648     1.118091940880     0.000000603469     
25.370000839233     1.112804055214     0.000000573392     
25.475000381470     1.107681035995     0.000000544086     
25.579999923706     1.102393031120     0.000000517865     
25.684999465942     1.097105026245     0.000000493572     
25.790000915527     1.091817021370     0.000000471207     
25.895000457764     1.086529016495     0.000000449227     
26.000000000000     1.081241011620     0.000000429947     
26.104999542236     1.075953006744     0.000000411438     
26.209999084473     1.070829987526     0.000000394086     
26.315000534058     1.065541982651     0.000000377505     
26.420000076294     1.060088992119     0.000000363238     
26.524999618530     1.054965972900     0.000000348585     
26.629999160767     1.049677968025     0.000000335089     
26.735000610352     1.044389963150     0.000000323135     
26.834999084473     1.037780046463     0.000000315897     
26.940000534058     1.032492041588     0.000000305345     
27.045000076294     1.027204036713     0.000000295130     
27.149999618530     1.021916031837     0.000000284704     
27.254999160767     1.016793012619     0.000000275334     
27.360000610352     1.011505007744     0.000000266934     
27.465000152588     1.006217002869     0.000000258323     
27.569999694824     1.000928997993     0.000000250050     
27.674999237061     0.995640993118     0.000000242959     
27.780000686646     0.990352988243     0.000000235572     
27.885000228882     0.985230028629     0.000000228143     
27.989999771118     0.979942023754     0.000000221896     
28.094999313354     0.974654018879     0.000000215945     
28.200000762939     0.969366014004     0.000000208811     
28.305000305176     0.964078009129     0.000000203409     
28.409999847412     0.958790004253     0.000000198090     
28.514999389648     0.953501999378     0.000000192392     
28.620000839233     0.948378980160     0.000000186905     
28.725000381470     0.942925989628     0.000000182304     
28.829999923706     0.937802970409     0.000000177154     
28.934999465942     0.932515025139     0.000000172089     
29.040000915527     0.927227020264     0.000000168079     
29.145000457764     0.922104001045     0.000000164069     
29.250000000000     0.916815996170     0.000000158751     
29.354999542236     0.911527991295     0.000000154994     
29.459999084473     0.906239986420     0.000000151153     
29.565000534058     0.900951981544     0.000000146679     
29.670000076294     0.895663976669     0.000000142500     
29.774999618530     0.890375971794     0.000000139630     
29.879999160767     0.885088026524     0.000000135029     
29.985000610352     0.879965007305     0.000000131399     
30.090000152588     0.874677002430     0.000000128613     
30.194999694824     0.869388997555     0.000000124899     
30.299999237061     0.864100992680     0.000000121057     
30.405000686646     0.858977973461     0.000000118229     
30.510000228882     0.853524982929     0.000000115064     
30.614999771118     0.848402023315     0.000000111138     
30.719999313354     0.843114018440     0.000000108226     
30.825000762939     0.837826013565     0.000000105355     
30.930000305176     0.832538008690     0.000000101852     
31.034999847412     0.827250003815     0.000000098602     
31.139999389648     0.822126984596     0.000000096280     
31.245000839233     0.816838979721     0.000000092988     
31.350000381470     0.811550974846     0.000000089822     
31.454999923706     0.806096971035     0.000000087374     
31.559999465942     0.800975024700     0.000000084799     
31.665000915527     0.795686006546     0.000000081296     
31.770000457764     0.790398001671     0.000000078721     
31.875000000000     0.785109996796     0.000000076695     
31.979999542236     0.779987990856     0.000000073023     
32.084999084473     0.774699985981     0.000000070448     
32.189998626709     0.769411027431     0.000000068506     
32.294998168945     0.764123022556     0.000000065256     
32.400001525879     0.758835017681     0.000000062428     
32.505001068115     0.753713011742     0.000000060571     
32.610000610352     0.748423993587     0.000000057658     
32.715000152588     0.743135988712     0.000000054915     
32.819999694824     0.737682998180     0.000000052931     
32.924999237061     0.732559978962     0.000000050905     
33.029998779297     0.727271974087     0.000000047486     
33.134998321533     0.721984028816     0.000000045586     
33.240001678467     0.716861009598     0.000000043518     
33.345001220703     0.711573004723     0.000000040690     
33.450000762939     0.706120014191     0.000000038326     
33.555000305176     0.700996994972     0.000000036469     
33.659999847412     0.695708990097     0.000000033683     
33.764999389648     0.690585970879     0.000000031531     
33.869998931885     0.685132980347     0.000000029631     
33.930000305176     0.676540017128     0.000000026168     
34.034999847412     0.671252012253     0.000000024171     
34.139999389648     0.665964007378     0.000000022723     
34.244998931885     0.660676002502     0.000000020253     
34.349998474121     0.655387997627     0.000000018041     
34.455001831055     0.650264978409     0.000000016651     
34.560001373291     0.644811987877     0.000000014584     
34.665000915527     0.639689028263     0.000000012207     
34.770000457764     0.634401023388     0.000000010820     
34.875000000000     0.629113018513     0.000000009211     
34.979999542236     0.623825013638     0.000000006845     
35.084999084473     0.618701994419     0.000000005181     
35.189998626709     0.613413989544     0.000000003918     
35.294998168945     0.608125984669     0.000000001621     
