
Cycle 1
Physical Cycle 1
Step 1

Time (s),          Potential (V),         Current (A)
0.104999996722     0.001983999973     -0.000001086397     
0.209999993443     0.007275000215     -0.000001006347     
0.314999997616     0.012567000464     -0.000000933920     
0.419999986887     0.017692999914     -0.000000869118     
0.449999988079     0.027778999880     -0.000000838058     
0.555000007153     0.033234998584     -0.000000783928     
0.660000026226     0.038361001760     -0.000000734405     
0.764999985695     0.043653000146     -0.000000686033     
0.870000004768     0.048944000155     -0.000000641116     
0.975000023842     0.054235000163     -0.000000600039     
1.080000042915     0.059526000172     -0.000000561265     
1.184999942780     0.064652003348     -0.000000523642     
1.289999961853     0.069943003356     -0.000000489091     
1.394999980927     0.075234003365     -0.000000456459     
1.500000000000     0.080360002816     -0.000000424596     
1.605000019073     0.085652001202     -0.000000395035     
1.710000038147     0.090943001211     -0.000000368546     
1.815000057220     0.096234001219     -0.000000342441     
1.919999957085     0.101525001228     -0.000000317487     
2.025000095367     0.106816001236     -0.000000294069     
2.045000076294     0.117398999631     -0.000000257297     
2.150000095367     0.122689999640     -0.000000237279     
2.255000114441     0.127981007099     -0.000000218898     
2.359999895096     0.133273005486     -0.000000200768     
2.464999914169     0.138564005494     -0.000000182723     
2.569999933243     0.143690004945     -0.000000165348     
2.674999952316     0.149146005511     -0.000000148814     
2.779999971390     0.154272004962     -0.000000132447     
2.884999990463     0.159563004971     -0.000000118010     
2.990000009537     0.164689004421     -0.000000103825     
3.095000028610     0.169980004430     -0.000000088717     
3.200000047684     0.175272002816     -0.000000073861     
3.305000066757     0.180563002825     -0.000000059886     
3.410000085831     0.185854002833     -0.000000046499     
3.515000104904     0.190980002284     -0.000000032776     
3.619999885559     0.196271002293     -0.000000019724     
3.724999904633     0.201562002301     -0.000000006421     
3.829999923706     0.206853002310     0.000000007974     
3.845000028610     0.217271000147     0.000000034072     
3.950000047684     0.222562000155     0.000000048621     
4.054999828339     0.227687999606     0.000000062758     
4.159999847412     0.232813999057     0.000000076846     
4.224999904633     0.241576999426     0.000000106175     
4.329999923706     0.246867999434     0.000000122417     
4.434999942780     0.251994013786     0.000000139287     
4.539999961853     0.257284998894     0.000000157417     
4.644999980927     0.262576997280     0.000000176973     
4.750000000000     0.267868012190     0.000000197285     
4.855000019073     0.273158997297     0.000000218100     
4.960000038147     0.278450012207     0.000000240511     
5.065000057220     0.283740997314     0.000000262627     
5.170000076294     0.288866996765     0.000000284827     
5.275000095367     0.294158995152     0.000000308916     
5.380000114441     0.299284011126     0.000000334432     
5.485000133514     0.304576009512     0.000000359696     
5.590000152588     0.309866994619     0.000000385715     
5.695000171661     0.315158009529     0.000000412196     
5.800000190735     0.320448994637     0.000000438131     
5.905000209808     0.325574994087     0.000000464318     
6.010000228882     0.330866008997     0.000000492100     
6.114999771118     0.336158007383     0.000000520260     
6.219999790192     0.341282993555     0.000000547832     
6.324999809265     0.346574991941     0.000000575278     
6.429999828339     0.351866006851     0.000000602850     
6.534999847412     0.357156991959     0.000000630170     
6.639999866486     0.362448006868     0.000000658204     
6.744999885559     0.367574006319     0.000000686741     
6.849999904633     0.372864991426     0.000000714397     
6.954999923706     0.378156989813     0.000000740375     
7.059999942780     0.383448004723     0.000000767401     
7.164999961853     0.388738989830     0.000000793798     
7.269999980927     0.393864989281     0.000000819524     
7.375000000000     0.399156004190     0.000000844872     
7.480000019073     0.404446989298     0.000000870261     
7.585000038147     0.409738987684     0.000000893595     
7.690000057220     0.414864003658     0.000000914998     
7.795000076294     0.420156002045     0.000000937156     
7.900000095367     0.425280988216     0.000000959189     
8.005000114441     0.430738002062     0.000000979500     
8.109999656677     0.435864001513     0.000000998847     
8.215000152588     0.440990000963     0.000001017354     
8.319999694824     0.446446001530     0.000001034351     
8.420000076294     0.453556001186     0.000001071470     
8.524999618530     0.458682000637     0.000001086443     
8.630000114441     0.463973999023     0.000001100647     
8.734999656677     0.469265013933     0.000001114468     
8.840000152588     0.474555999041     0.000001127520     
8.944999694824     0.479847013950     0.000001139421     
9.050000190735     0.485137999058     0.000001150938     
9.154999732971     0.490429997444     0.000001163607     
9.260000228882     0.495555013418     0.000001175124     
9.364999771118     0.500846982002     0.000001184722     
9.470000267029     0.506138026714     0.000001194319     
9.574999809265     0.511429011822     0.000001204684     
9.680000305176     0.516719996929     0.000001213898     
9.784999847412     0.521845996380     0.000001223496     
9.890000343323     0.527136981487     0.000001233477     
9.994999885559     0.532428979874     0.000001242307     
10.100000381470     0.537720024586     0.000001250369     
10.204999923706     0.543011009693     0.000001258815     
10.310000419617     0.548301994801     0.000001268412     
10.414999961853     0.553592979908     0.000001277626     
10.520000457764     0.558718979359     0.000001286072     
10.625000000000     0.564010977745     0.000001295285     
10.729999542236     0.569302022457     0.000001303731     
10.835000038147     0.574593007565     0.000001312561     
10.939999580383     0.579883992672     0.000001322158     
11.045000076294     0.585009992123     0.000001332140     
11.149999618530     0.590300977230     0.000001342121     
11.255000114441     0.595592975616     0.000001352103     
11.359999656677     0.600884020329     0.000001362084     
11.465000152588     0.606175005436     0.000001372066     
11.569999694824     0.611465990543     0.000001382431     
11.675000190735     0.616756975651     0.000001394716     
11.779999732971     0.622048974037     0.000001406233     
11.885000228882     0.627174019814     0.000001416982     
11.989999771118     0.632466018200     0.000001428499     
12.095000267029     0.637757003307     0.000001441552     
12.199999809265     0.643047988415     0.000001453837     
12.305000305176     0.648338973522     0.000001466890     
12.409999847412     0.653630971909     0.000001481094     
12.515000343323     0.658756017685     0.000001494530     
12.619999885559     0.664048016071     0.000001507583     
12.725000381470     0.669339001179     0.000001522555     
12.829999923706     0.674629986286     0.000001538295     
12.935000419617     0.679920971394     0.000001554035     
13.039999961853     0.685212016106     0.000001569007     
13.145000457764     0.690504014492     0.000001584747     
13.250000000000     0.695794999599     0.000001600487     
13.354999542236     0.700920999050     0.000001616611     
13.460000038147     0.706211984158     0.000001634271     
13.564999580383     0.711503028870     0.000001651930     
13.670000076294     0.716794013977     0.000001669206     
13.774999618530     0.722086012363     0.000001686865     
13.880000114441     0.727376997471     0.000001705293     
13.984999656677     0.732667982578     0.000001723336     
14.090000152588     0.737793982029     0.000001742147     
14.194999694824     0.743085026741     0.000001762878     
14.300000190735     0.748376011848     0.000001782457     
14.404999732971     0.753668010235     0.000001801268     
14.510000228882     0.758792996407     0.000001820847     
14.614999771118     0.764249980450     0.000001841962     
14.720000267029     0.769541025162     0.000001862693     
14.824999809265     0.774667024612     0.000001883807     
14.930000305176     0.779958009720     0.000001905306     
15.034999847412     0.785250008106     0.000001926420     
15.140000343323     0.790540993214     0.000001946767     
15.244999885559     0.795666992664     0.000001968266     
15.350000381470     0.800957977772     0.000001991300     
15.454999923706     0.806249022484     0.000002013182     
15.560000419617     0.811706006527     0.000002035065     
15.664999961853     0.816830992699     0.000002056947     
15.770000457764     0.822122991085     0.000002078829     
15.875000000000     0.827413976192     0.000002101480     
15.979999542236     0.832705020905     0.000002125281     
16.084999084473     0.837831020355     0.000002148316     
16.190000534058     0.843122005463     0.000002170966     
16.295000076294     0.848248004913     0.000002194384     
16.399999618530     0.853538990021     0.000002217802     
16.504999160767     0.858829975128     0.000002241988     
16.610000610352     0.864121973515     0.000002266557     
16.715000152588     0.869413018227     0.000002292663     
16.819999694824     0.874704003334     0.000002317232     
16.924999237061     0.879994988441     0.000002341802     
17.030000686646     0.885286986828     0.000002367140     
17.135000228882     0.890577971935     0.000002394397     
17.239999771118     0.895703971386     0.000002421654     
17.344999313354     0.900995016098     0.000002448527     
17.450000762939     0.906286001205     0.000002476168     
17.555000305176     0.911576986313     0.000002503425     
17.659999847412     0.916868984699     0.000002530298     
17.764999389648     0.921993970871     0.000002559475     
17.870000839233     0.927286028862     0.000002589035     
17.975000381470     0.932577013969     0.000002618212     
18.079999923706     0.937867999077     0.000002647388     
18.184999465942     0.943158984184     0.000002676949     
18.290000915527     0.948284983635     0.000002706125     
18.395000457764     0.953576028347     0.000002736837     
18.500000000000     0.958868026733     0.000002767933     
18.604999542236     0.964159011841     0.000002798646     
18.709999084473     0.969449996948     0.000002827822     
18.815000534058     0.974740982056     0.000002858918     
18.920000076294     0.980032026768     0.000002890398     
19.024999618530     0.985324025154     0.000002921494     
19.129999160767     0.990615010262     0.000002953742     
19.235000610352     0.995741009712     0.000002986374     
19.340000152588     1.001031994820     0.000003017854     
19.444999694824     1.006322979927     0.000003048950     
19.549999237061     1.011613965034     0.000003082349     
19.655000686646     1.016906023026     0.000003116516     
19.760000228882     1.022030949593     0.000003150300     
19.864999771118     1.027323007584     0.000003184083     
19.969999313354     1.032613992691     0.000003218634     
20.075000762939     1.037904977798     0.000003252802     
20.180000305176     1.043195962906     0.000003288505     
20.284999847412     1.048321962357     0.000003324591     
20.389999389648     1.053612947464     0.000003362598     
20.495000839233     1.058905005455     0.000003399452     
20.600000381470     1.064195990562     0.000003436307     
20.704999923706     1.069486975670     0.000003474697     
20.809999465942     1.074777960777     0.000003513087     
20.915000915527     1.080068945885     0.000003554165     
21.020000457764     1.085194945335     0.000003596010     
21.125000000000     1.090487003326     0.000003637088     
21.229999542236     1.095777988434     0.000003678165     
21.334999084473     1.101068973541     0.000003721930     
21.440000534058     1.106359958649     0.000003768382     
21.545000076294     1.111485958099     0.000003814834     
21.649999618530     1.116776943207     0.000003862438     
21.754999160767     1.122068047523     0.000003912345     
21.860000610352     1.127359986305     0.000003961869     
21.965000152588     1.132650971413     0.000004012928     
22.069999694824     1.137776970863     0.000004068209     
22.174999237061     1.143067955971     0.000004124643     
22.280000686646     1.148358941078     0.000004182612     
22.385000228882     1.153650045395     0.000004242117     
22.489999771118     1.158941984177     0.000004304309     
22.594999313354     1.164232969284     0.000004368805     
22.700000762939     1.169523954391     0.000004436755     
22.805000305176     1.174649953842     0.000004507777     
22.909999847412     1.179941058159     0.000004579951     
23.014999389648     1.185232043266     0.000004655196     
23.120000839233     1.190523982048     0.000004735047     
23.225000381470     1.195649027824     0.000004817970     
23.329999923706     1.197303056717     0.000004697425     
23.434999465942     1.192177057266     0.000004320817     
23.540000915527     1.187051057816     0.000003992581     
23.645000457764     1.181759953499     0.000003700047     
23.750000000000     1.176468968391     0.000003438226     
23.854999542236     1.171342968941     0.000003204430     
23.959999084473     1.165886044502     0.000002993284     
24.065000534058     1.160760998726     0.000002800181     
24.170000076294     1.155468940735     0.000002624738     
24.274999618530     1.150177955627     0.000002466186     
24.379999160767     1.145051956177     0.000002319536     
24.485000610352     1.139595985413     0.000002187474     
24.590000152588     1.134469985962     0.000002066928     
24.694999694824     1.129179000854     0.000001955597     
24.799999237061     1.123886942863     0.000001851943     
24.905000686646     1.118595957756     0.000001756736     
25.010000228882     1.113469958305     0.000001670358     
25.114999771118     1.108178973198     0.000001590890     
25.219999313354     1.102887988091     0.000001517181     
25.325000762939     1.097597002983     0.000001449614     
25.430000305176     1.092471003532     0.000001385502     
25.534999847412     1.087013959885     0.000001325614     
25.639999389648     1.081887960434     0.000001271100     
25.745000839233     1.076596975327     0.000001221960     
25.850000381470     1.071305990219     0.000001175124     
25.954999923706     1.066015005112     0.000001130591     
26.059999465942     1.060889005661     0.000001089898     
26.165000915527     1.055431962013     0.000001050740     
26.270000457764     1.050305962563     0.000001015037     
26.375000000000     1.045014977455     0.000000982405     
26.479999542236     1.039723992348     0.000000951309     
26.584999084473     1.034433007240     0.000000920597     
26.690000534058     1.029142022133     0.000000892188     
26.795000076294     1.024016022682     0.000000866083     
26.899999618530     1.018723964691     0.000000840745     
27.004999160767     1.013432979584     0.000000817711     
27.110000610352     1.008141994476     0.000000796597     
27.215000152588     1.002851009369     0.000000773946     
27.319999694824     0.997725009918     0.000000752832     
27.424999237061     0.992268025875     0.000000734021     
27.530000686646     0.987142026424     0.000000716361     
27.635000228882     0.981850981712     0.000000699469     
27.739999771118     0.976724982262     0.000000681810     
27.844999313354     0.971269011497     0.000000665686     
27.950000762939     0.965978026390     0.000000649178     
28.055000305176     0.960686028004     0.000000634206     
28.159999847412     0.955560982227     0.000000620386     
28.264999389648     0.950268983841     0.000000607333     
28.370000839233     0.944977998734     0.000000593129     
28.475000381470     0.939687013626     0.000000579308     
28.579999923706     0.934561014175     0.000000566255     
28.684999465942     0.929270029068     0.000000553971     
28.790000915527     0.923812985420     0.000000542837     
28.895000457764     0.918686985970     0.000000531704     
29.000000000000     0.913561999798     0.000000519803     
29.104999542236     0.908105015755     0.000000507135     
29.209999084473     0.902813971043     0.000000496001     
29.315000534058     0.897522985935     0.000000486404     
29.420000076294     0.892396986485     0.000000475271     
29.524999618530     0.887104988098     0.000000464905     
29.629999160767     0.881814002991     0.000000454540     
29.735000610352     0.876523017883     0.000000444175     
29.840000152588     0.871231973171     0.000000433041     
29.944999694824     0.865940988064     0.000000424596     
30.049999237061     0.860648989677     0.000000415766     
30.155000686646     0.855522990227     0.000000405017     
30.260000228882     0.850232005119     0.000000394267     
30.364999771118     0.844941020012     0.000000384670     
30.469999313354     0.839649975300     0.000000375456     
30.575000762939     0.834523975849     0.000000366626     
30.680000305176     0.829232990742     0.000000357797     
30.784999847412     0.823776006699     0.000000347815     
30.899999618530     0.812698006630     0.000000316764     
31.004999160767     0.807406008244     0.000000307279     
31.110000610352     0.802115023136     0.000000299642     
31.215000152588     0.796989023685     0.000000291248     
31.319999694824     0.791697978973     0.000000281512     
31.424999237061     0.786406993866     0.000000271440     
31.530000686646     0.781116008759     0.000000262123     
31.635000228882     0.775825023651     0.000000252849     
31.739999771118     0.770533025265     0.000000244288     
31.844999313354     0.765407025814     0.000000235684     
31.950000762939     0.760115981102     0.000000226410     
32.055000305176     0.754824995995     0.000000216128     
32.159999847412     0.749534010887     0.000000207063     
32.264999389648     0.744408011436     0.000000198334     
32.369998931885     0.739117026329     0.000000189311     
32.474998474121     0.733825981617     0.000000180121     
32.580001831055     0.728533983231     0.000000171182     
32.685001373291     0.723242998123     0.000000160522     
32.790000915527     0.717952013016     0.000000150366     
32.895000457764     0.712826013565     0.000000142141     
33.000000000000     0.707535028458     0.000000133957     
33.104999542236     0.702243983746     0.000000123508     
33.209999084473     0.696951985359     0.000000113688     
33.314998626709     0.691661000252     0.000000104413     
33.419998168945     0.686535000801     0.000000095474     
33.525001525879     0.681244015694     0.000000086787     
33.630001068115     0.675952970982     0.000000079737     
33.735000610352     0.670661985874     0.000000072266     
33.840000152588     0.665369987488     0.000000064209     
33.944999694824     0.660079002380     0.000000058208     
34.049999237061     0.654788017273     0.000000054137     
34.154998779297     0.649496972561     0.000000050360     
34.259998321533     0.644370973110     0.000000047926     
34.365001678467     0.639079988003     0.000000046751     
34.470001220703     0.633787989616     0.000000044736     
34.575000762939     0.628497004509     0.000000043687     
34.680000305176     0.623206019402     0.000000044652     
34.784999847412     0.617914974689     0.000000046499     
34.889999389648     0.612623989582     0.000000046877     
34.994998931885     0.607331991196     0.000000047800     
35.099998474121     0.602207005024     0.000000048513     
35.205001831055     0.596915006638     0.000000048429     
