
Cycle 1
Physical Cycle 1
Step 1

Time (s),          Potential (V),         Current (A)
0.104999996722     0.002644000109     -0.000004243678     
0.209999993443     0.007931999862     -0.000003833123     
0.314999997616     0.013055000454     -0.000003487797     
0.419999986887     0.018342999741     -0.000003177003     
0.524999976158     0.023631000891     -0.000002896905     
0.629999995232     0.028919000179     -0.000002639828     
0.709999978542     0.036685999483     -0.000002229942     
0.814999997616     0.041809000075     -0.000002021717     
0.920000016689     0.047097001225     -0.000001825830     
1.024999976158     0.052384998649     -0.000001638813     
1.129999995232     0.057507999241     -0.000001461821     
1.235000014305     0.062960997224     -0.000001293312     
1.340000033379     0.068084001541     -0.000001130202     
1.445000052452     0.073371998966     -0.000000971720     
1.549999952316     0.078659996390     -0.000000822877     
1.654999971390     0.083948001266     -0.000000677504     
1.759999990463     0.089070998132     -0.000000536374     
1.865000009537     0.094359003007     -0.000000399870     
1.970000028610     0.099647000432     -0.000000267223     
2.075000047684     0.104934997857     -0.000000136889     
2.180000066757     0.110223002732     -0.000000011182     
2.285000085831     0.115345999599     0.000000111439     
2.355000019073     0.123277999461     0.000000293906     
2.460000038147     0.128399997950     0.000000407197     
2.565000057220     0.133523002267     0.000000516140     
2.670000076294     0.138811007142     0.000000619681     
2.775000095367     0.144098997116     0.000000719549     
2.880000114441     0.149387001991     0.000000814900     
2.984999895096     0.154510006309     0.000000904849     
3.089999914169     0.159632995725     0.000000988636     
3.160000085831     0.168226003647     0.000001117477     
3.265000104904     0.173513993621     0.000001182259     
3.369999885559     0.178801998496     0.000001242027     
3.474999904633     0.183925002813     0.000001293312     
3.579999923706     0.189212992787     0.000001339585     
3.684999942780     0.194500997663     0.000001378531     
3.789999961853     0.199789002538     0.000001412464     
3.894999980927     0.205077007413     0.000001439842     
4.000000000000     0.210364997387     0.000001463749     
4.105000019073     0.215653002262     0.000001480716     
4.210000038147     0.220941007137     0.000001496140     
4.315000057220     0.226063996553     0.000001508865     
4.420000076294     0.231352001429     0.000001517348     
4.525000095367     0.236640006304     0.000001521975     
4.630000114441     0.241927996278     0.000001527373     
4.735000133514     0.247216001153     0.000001528916     
4.840000152588     0.252503991127     0.000001529687     
4.945000171661     0.257791996002     0.000001529687     
5.050000190735     0.263081014156     0.000001529301     
5.155000209808     0.268202990294     0.000001526217     
5.260000228882     0.273490995169     0.000001525831     
5.364999771118     0.278779000044     0.000001526217     
5.469999790192     0.284067988396     0.000001524289     
5.574999809265     0.289355993271     0.000001522361     
5.679999828339     0.294643998146     0.000001523903     
5.784999847412     0.299766004086     0.000001526217     
5.889999866486     0.305054008961     0.000001528145     
5.994999885559     0.310342997313     0.000001531615     
6.099999904633     0.315631002188     0.000001536628     
6.204999923706     0.320919007063     0.000001542026     
6.309999942780     0.326207011938     0.000001550895     
6.414999961853     0.331494987011     0.000001560921     
6.519999980927     0.336618006229     0.000001570175     
6.625000000000     0.341906011105     0.000001579815     
6.730000019073     0.347193986177     0.000001594083     
6.835000038147     0.352481991053     0.000001607193     
6.940000057220     0.357769995928     0.000001619533     
7.045000076294     0.363058000803     0.000001635342     
7.150000095367     0.368346005678     0.000001651538     
7.255000114441     0.373468995094     0.000001667347     
7.360000133514     0.378756999969     0.000001684700     
7.465000152588     0.384045004845     0.000001702052     
7.570000171661     0.389333009720     0.000001718247     
7.675000190735     0.394621014595     0.000001735985     
7.780000209808     0.399908989668     0.000001755650     
7.885000228882     0.405196994543     0.000001773003     
7.989999771118     0.410484999418     0.000001788812     
8.095000267029     0.415607988834     0.000001806550     
8.199999809265     0.420895993710     0.000001826216     
8.305000305176     0.426183998585     0.000001843568     
8.409999847412     0.431472003460     0.000001862077     
8.515000343323     0.436594992876     0.000001880200     
8.619999885559     0.442048013210     0.000001896396     
8.725000381470     0.447171002626     0.000001914904     
8.829999923706     0.452459007502     0.000001934956     
8.935000419617     0.457747012377     0.000001951922     
9.039999961853     0.463034987450     0.000001976601     
9.145000457764     0.468322992325     0.000001996652     
9.250000000000     0.473610997200     0.000002015547     
9.354999542236     0.478733986616     0.000002030585     
9.460000038147     0.484021991491     0.000002048709     
9.564999580383     0.489309996367     0.000002065290     
9.670000076294     0.494598001242     0.000002081099     
9.774999618530     0.499886006117     0.000002098066     
9.880000114441     0.505173981190     0.000002116189     
9.984999656677     0.510461986065     0.000002130842     
10.090000152588     0.515749990940     0.000002147038     
10.194999694824     0.520873010159     0.000002165932     
10.300000190735     0.526161015034     0.000002184055     
10.404999732971     0.531449019909     0.000002199480     
10.510000228882     0.536737024784     0.000002216832     
10.614999771118     0.542025029659     0.000002234184     
10.720000267029     0.547147989273     0.000002252693     
10.824999809265     0.552435994148     0.000002270816     
10.930000305176     0.557723999023     0.000002290482     
11.034999847412     0.563012003899     0.000002308605     
11.140000343323     0.568300008774     0.000002327500     
11.244999885559     0.573588013649     0.000002349093     
11.350000381470     0.578876018524     0.000002367988     
11.454999923706     0.583998978138     0.000002384955     
11.560000419617     0.589452028275     0.000002406163     
11.664999961853     0.594740986824     0.000002426600     
11.770000457764     0.599862992764     0.000002447808     
11.875000000000     0.605150997639     0.000002468630     
11.979999542236     0.610439002514     0.000002490224     
12.085000038147     0.615727007389     0.000002509504     
12.189999580383     0.621016025543     0.000002531869     
12.295000076294     0.626137971878     0.000002558862     
12.399999618530     0.631425976753     0.000002585854     
12.505000114441     0.636713981628     0.000002612846     
12.609999656677     0.642001986504     0.000002647550     
12.715000152588     0.647291004658     0.000002679170     
12.819999694824     0.652413010597     0.000002710789     
12.925000190735     0.657701015472     0.000002740481     
13.029999732971     0.662989020348     0.000002769786     
13.135000228882     0.668277025223     0.000002803334     
13.239999771118     0.673565983772     0.000002840352     
13.345000267029     0.678853988647     0.000002874670     
13.449999809265     0.684141993523     0.000002902048     
13.555000305176     0.689429998398     0.000002930968     
13.659999847412     0.694718003273     0.000002969529     
13.765000343323     0.699841022491     0.000003004233     
13.869999885559     0.705129027367     0.000003036624     
13.975000381470     0.710416972637     0.000003077883     
14.079999923706     0.715538978577     0.000003118757     
14.185000419617     0.720992982388     0.000003161173     
14.289999961853     0.726116001606     0.000003219399     
14.395000457764     0.731568992138     0.000003285723     
14.500000000000     0.736692011356     0.000003378653     
14.604999542236     0.741980016232     0.000003504746     
14.710000038147     0.747268021107     0.000003534823     
14.814999580383     0.752556025982     0.000003558730     
14.920000076294     0.757678985596     0.000003583794     
15.024999618530     0.763131976128     0.000003610401     
15.130000114441     0.768254995346     0.000003648961     
15.234999656677     0.773543000221     0.000003692149     
15.340000152588     0.778666019440     0.000003735336     
15.444999694824     0.784119009972     0.000003774282     
15.550000190735     0.789407014847     0.000003812457     
15.654999732971     0.794529974461     0.000003858729     
15.760000228882     0.799817979336     0.000003907701     
15.864999771118     0.805105984211     0.000003957058     
15.970000267029     0.810393989086     0.000004011428     
16.075000762939     0.815681993961     0.000004214255     
16.180000305176     0.820969998837     0.000004724022     
16.284999847412     0.826093018055     0.000004840474     
16.389999389648     0.831381022930     0.000004956927     
16.495000839233     0.836669027805     0.000005117723     
16.600000381470     0.841956973076     0.000005229162     
16.704999923706     0.847079992294     0.000005389959     
16.809999465942     0.852367997169     0.000005587002     
16.915000915527     0.857656002045     0.000005750498     
17.020000457764     0.862944006920     0.000005880060     
17.125000000000     0.868232011795     0.000005999211     
17.229999542236     0.873354971409     0.000006110651     
17.334999084473     0.878642976284     0.000006227874     
17.440000534058     0.883930981159     0.000006320033     
17.545000076294     0.889218986034     0.000006413735     
17.649999618530     0.894342005253     0.000006507436     
17.754999160767     0.899794995785     0.000006594197     
17.860000610352     0.905083000660     0.000006677102     
17.965000152588     0.910206019878     0.000006814376     
18.069999694824     0.915494024754     0.000007584425     
18.174999237061     0.920782029629     0.000007675813     
18.280000686646     0.925904989243     0.000007778384     
18.385000228882     0.931192994118     0.000007857047     
18.489999771118     0.936480998993     0.000007992779     
18.594999313354     0.941769003868     0.000008136609     
18.700000762939     0.947057008743     0.000008182110     
18.805000305176     0.952180027962     0.000008233395     
18.909999847412     0.957467973232     0.000008349076     
19.014999389648     0.962755978107     0.000008430438     
19.120000839233     0.968043982983     0.000008529924     
19.225000381470     0.973331987858     0.000008599718     
19.329999923706     0.978455007076     0.000008669512     
19.434999465942     0.983743011951     0.000008747404     
19.540000915527     0.989031016827     0.000008822211     
19.645000457764     0.994319021702     0.000008894319     
19.750000000000     0.999607026577     0.000008967583     
19.854999542236     1.004894971848     0.000009111028     
19.959999084473     1.011669993401     0.000010091205     
20.065000534058     1.016957998276     0.000010237009     
20.170000076294     1.022081017494     0.000010352118     
20.274999618530     1.027369022369     0.000010501760     
20.379999160767     1.032657027245     0.000010643727     
20.485000610352     1.037945032120     0.000010778021     
20.590000152588     1.043233036995     0.000010889292     
20.694999694824     1.048521041870     0.000011015912     
20.799999237061     1.053809046745     0.000011150206     
20.905000686646     1.059098005295     0.000011276825     
21.010000228882     1.064386010170     0.000011391934     
21.114999771118     1.069507956505     0.000011510880     
21.219999313354     1.074795961380     0.000011687380     
21.325000762939     1.080083966255     0.000011817837     
21.430000305176     1.085373044014     0.000011925272     
21.534999847412     1.090661048889     0.000012025033     
21.639999389648     1.095782995224     0.000012120957     
21.745000839233     1.101237058640     0.000012213044     
21.850000381470     1.106359004974     0.000012312805     
21.954999923706     1.111647963524     0.000012420240     
22.059999465942     1.116935968399     0.000012527674     
22.165000915527     1.122223973274     0.000012627435     
22.270000457764     1.127511978149     0.000012719522     
22.375000000000     1.132799983025     0.000012811609     
22.479999542236     1.138087987900     0.000012903696     
22.584999084473     1.143375992775     0.000012995784     
22.690000534058     1.148499011993     0.000013091708     
22.795000076294     1.153787016869     0.000013191468     
22.899999618530     1.159075021744     0.000013291229     
23.004999160767     1.164363026619     0.000013383316     
23.110000610352     1.169651031494     0.000013502262     
23.215000152588     1.174939036369     0.000013613534     
23.319999694824     1.180062055588     0.000013717132     
23.424999237061     1.185349941254     0.000013820730     
23.530000686646     1.190637946129     0.000013928165     
23.635000228882     1.195925951004     0.000014043274     
23.739999771118     1.198238968849     0.000013970371     
23.844999313354     1.193282008171     0.000013571328     
23.950000762939     1.187994003296     0.000013202979     
24.055000305176     1.182705998421     0.000012873001     
24.159999847412     1.177582979202     0.000012566044     
24.264999389648     1.172294974327     0.000012282109     
24.370000839233     1.167006969452     0.000012021196     
24.475000381470     1.161718964577     0.000011779467     
24.579999923706     1.156430959702     0.000011556924     
24.684999465942     1.151142954826     0.000011345891     
24.790000915527     1.146020054817     0.000011146369     
24.895000457764     1.140566945076     0.000010958358     
25.000000000000     1.135444045067     0.000010785695     
25.104999542236     1.130156040192     0.000010613031     
25.209999084473     1.124868035316     0.000010451879     
25.315000534058     1.119745016098     0.000010302238     
25.420000076294     1.114457011223     0.000010160270     
25.524999618530     1.109169006348     0.000010029813     
25.629999160767     1.103881001472     0.000009918542     
25.735000610352     1.098592996597     0.000009799596     
25.840000152588     1.093304991722     0.000009684487     
25.944999694824     1.088016986847     0.000009584726     
26.049999237061     1.082728028297     0.000009488802     
26.155000686646     1.077440023422     0.000009400552     
26.260000228882     1.072317957878     0.000009327650     
26.364999771118     1.067029953003     0.000009289280     
26.469999313354     1.061741948128     0.000009270095     
26.575000762939     1.056452989578     0.000009224052     
26.680000305176     1.051164984703     0.000009197193     
26.784999847412     1.045876979828     0.000009170334     
26.889999389648     1.040755033493     0.000009116617     
26.995000839233     1.035467028618     0.000009059063     
27.100000381470     1.030177950859     0.000008989997     
27.204999923706     1.024889945984     0.000008917095     
27.309999465942     1.019601941109     0.000008844193     
27.415000915527     1.014314055443     0.000008771291     
27.520000457764     1.009026050568     0.000008706062     
27.625000000000     1.003738045692     0.000008640834     
27.729999542236     0.998449981213     0.000008575606     
27.834999084473     0.993327021599     0.000008502703     
27.940000534058     0.988039016724     0.000008433638     
28.045000076294     0.982751011848     0.000008364573     
28.149999618530     0.977463006973     0.000008299344     
28.254999160767     0.972339987755     0.000008230279     
28.360000610352     0.966886997223     0.000008168888     
28.465000152588     0.961763978004     0.000008103660     
28.569999694824     0.956310987473     0.000008038431     
28.674999237061     0.951188027859     0.000007973203     
28.780000686646     0.945900022984     0.000007907975     
28.885000228882     0.940612018108     0.000007842746     
28.989999771118     0.935488998890     0.000007785192     
29.094999313354     0.930200994015     0.000007723800     
29.200000762939     0.924748003483     0.000007662409     
29.305000305176     0.919624984264     0.000007601018     
29.409999847412     0.914336979389     0.000007543463     
29.514999389648     0.909048974514     0.000007478235     
29.620000839233     0.903761029243     0.000007424518     
29.725000381470     0.898473024368     0.000007370800     
29.829999923706     0.893350005150     0.000007313246     
29.934999465942     0.888062000275     0.000007255691     
30.040000915527     0.882773995399     0.000007201974     
30.145000457764     0.877485990524     0.000007148256     
30.250000000000     0.872197985649     0.000007086865     
30.354999542236     0.866909980774     0.000007033148     
30.459999084473     0.861621975899     0.000006979430     
30.565000534058     0.856499016285     0.000006921876     
30.670000076294     0.851046025753     0.000006871995     
30.774999618530     0.845923006535     0.000006818278     
30.879999160767     0.840635001659     0.000006768397     
30.985000610352     0.835511982441     0.000006714680     
31.090000152588     0.830058991909     0.000006660963     
31.194999694824     0.824770987034     0.000006607245     
31.299999237061     0.819648027420     0.000006553528     
31.405000686646     0.814360022545     0.000006507484     
31.510000228882     0.809072017670     0.000006457604     
31.614999771118     0.803784012794     0.000006403886     
31.719999313354     0.798496007919     0.000006350169     
31.825000762939     0.793372988701     0.000006304125     
31.930000305176     0.787919998169     0.000006250408     
32.034999847412     0.782631993294     0.000006200527     
32.139999389648     0.777508974075     0.000006146810     
32.244998931885     0.772221028805     0.000006096929     
32.349998474121     0.766933023930     0.000006047049     
32.455001831055     0.761645019054     0.000005997168     
32.560001373291     0.756357014179     0.000005951125     
32.665000915527     0.751233994961     0.000005897408     
32.770000457764     0.745779991150     0.000005855201     
32.875000000000     0.740491986275     0.000005809157     
32.979999542236     0.735203981400     0.000005759277     
33.084999084473     0.730081975460     0.000005713233     
33.189998626709     0.724793970585     0.000005663353     
33.294998168945     0.719671010971     0.000005621146     
33.400001525879     0.714217007160     0.000005571266     
33.505001068115     0.709095001221     0.000005525222     
33.610000610352     0.703640997410     0.000005479179     
33.715000152588     0.698518991470     0.000005429298     
33.819999694824     0.693229973316     0.000005387092     
33.924999237061     0.687942028046     0.000005344885     
34.029998779297     0.682820022106     0.000005295005     
34.134998321533     0.677366018295     0.000005248961     
34.240001678467     0.672078013420     0.000005202918     
34.345001220703     0.666954994202     0.000005160711     
34.450000762939     0.661502003670     0.000005114668     
34.555000305176     0.656213998795     0.000005072461     
34.659999847412     0.651090979576     0.000005030255     
34.764999389648     0.645802974701     0.000004988048     
34.869998931885     0.640515029430     0.000004942004     
34.974998474121     0.635227024555     0.000004903635     
35.080001831055     0.629939019680     0.000004861428     
35.185001373291     0.624651014805     0.000004815385     
35.290000915527     0.619527995586     0.000004773178     
35.395000457764     0.614239990711     0.000004730972     
