
Cycle 1
Physical Cycle 1
Step 1

Time (s),          Potential (V),         Current (A)
0.104999996722     0.002318999963     -0.000000271313     
0.209999993443     0.007619999815     -0.000000256028     
0.314999997616     0.012920999900     -0.000000240743     
0.419999986887     0.018222000450     -0.000000229279     
0.449999988079     0.028161000460     -0.000000198131     
0.555000007153     0.033461999148     -0.000000185025     
0.660000026226     0.038763001561     -0.000000173461     
0.764999985695     0.044064000249     -0.000000162282     
0.795000016689     0.054003998637     -0.000000141794     
0.899999976158     0.059305001050     -0.000000131291     
1.004999995232     0.064606003463     -0.000000122216     
1.110000014305     0.069907002151     -0.000000113603     
1.215000033379     0.075042001903     -0.000000104865     
1.320000052452     0.080343000591     -0.000000097092     
1.424999952316     0.085643999279     -0.000000090160     
1.529999971390     0.090944997966     -0.000000082472     
1.634999990463     0.096245996654     -0.000000075161     
1.740000009537     0.101380996406     -0.000000069196     
1.845000028610     0.106682002544     -0.000000063524     
1.950000047684     0.111983001232     -0.000000057306     
2.055000066757     0.117283999920     -0.000000051928     
2.160000085831     0.122418999672     -0.000000046971     
2.265000104904     0.127719998360     -0.000000041257     
2.369999885559     0.133020997047     -0.000000036257     
2.474999904633     0.138321995735     -0.000000032392     
2.579999923706     0.143622994423     -0.000000028149     
2.684999942780     0.148758992553     -0.000000023359     
2.789999961853     0.154060006142     -0.000000019284     
2.849999904633     0.162673994899     -0.000000012673     
2.954999923706     0.167808994651     -0.000000008472     
3.059999942780     0.173109993339     -0.000000005419     
3.164999961853     0.178411006927     -0.000000001854     
3.269999980927     0.183712005615     0.000000002359     
3.375000000000     0.188847005367     0.000000005828     
3.480000019073     0.194148004055     0.000000009321     
3.585000038147     0.199283003807     0.000000013663     
3.690000057220     0.204584002495     0.000000017679     
3.795000076294     0.209885001183     0.000000020864     
3.900000095367     0.215020999312     0.000000024831     
4.005000114441     0.220321998000     0.000000029593     
4.110000133514     0.225456997752     0.000000033674     
4.215000152588     0.230757996440     0.000000037913     
4.320000171661     0.236058995128     0.000000042964     
4.425000190735     0.241193994880     0.000000047693     
4.530000209808     0.246494993567     0.000000051887     
4.635000228882     0.251630991697     0.000000057245     
4.739999771118     0.256931990385     0.000000063229     
4.844999790192     0.262066990137     0.000000068455     
4.949999809265     0.267367988825     0.000000074041     
5.054999828339     0.272668987513     0.000000080540     
5.070000171661     0.283933013678     0.000000095244     
5.175000190735     0.289234012365     0.000000102386     
5.280000209808     0.294369995594     0.000000108814     
5.385000228882     0.299670994282     0.000000115914     
5.489999771118     0.304971992970     0.000000124275     
5.594999790192     0.310106992722     0.000000132089     
5.699999809265     0.315407991409     0.000000140114     
5.804999828339     0.320708990097     0.000000149062     
5.909999847412     0.326009988785     0.000000157801     
6.014999866486     0.331310987473     0.000000165616     
6.119999885559     0.336445987225     0.000000174144     
6.224999904633     0.341746985912     0.000000183429     
6.329999923706     0.347048014402     0.000000191916     
6.434999942780     0.352349013090     0.000000200234     
6.539999961853     0.357484012842     0.000000208889     
6.644999980927     0.362785011530     0.000000216830     
6.750000000000     0.368086010218     0.000000223804     
6.855000019073     0.373387008905     0.000000231450     
6.960000038147     0.378522992134     0.000000239265     
7.065000057220     0.383823990822     0.000000245399     
7.170000076294     0.389124989510     0.000000251406     
7.275000095367     0.394425988197     0.000000257624     
7.380000114441     0.399560987949     0.000000262918     
7.485000133514     0.404861986637     0.000000267581     
7.590000152588     0.410162985325     0.000000272959     
7.695000171661     0.415464013815     0.000000277749     
7.800000190735     0.420765012503     0.000000281152     
7.905000209808     0.425900012255     0.000000284639     
8.010000228882     0.431367009878     0.000000288714     
8.114999771118     0.436502009630     0.000000291865     
8.220000267029     0.441803008318     0.000000294890     
8.324999809265     0.446938008070     0.000000298293     
8.430000305176     0.452239006758     0.000000301276     
8.534999847412     0.457540005445     0.000000303167     
8.640000343323     0.462841004133     0.000000305729     
8.744999885559     0.467976987362     0.000000309006     
8.850000381470     0.473277002573     0.000000311401     
8.954999923706     0.478578001261     0.000000313796     
9.060000419617     0.483878999949     0.000000316737     
9.164999961853     0.489015012980     0.000000319174     
9.270000457764     0.494480997324     0.000000321190     
9.375000000000     0.499617010355     0.000000324215     
9.479999542236     0.504917979240     0.000000327786     
9.585000038147     0.510218977928     0.000000330055     
9.689999580383     0.515519976616     0.000000332702     
9.795000076294     0.520654976368     0.000000336315     
9.899999618530     0.525955975056     0.000000339382     
10.005000114441     0.531256973743     0.000000342365     
10.109999656677     0.536557972431     0.000000346524     
10.215000152588     0.541858971119     0.000000350557     
10.319999694824     0.546993970871     0.000000353624     
10.425000190735     0.552295029163     0.000000357405     
10.529999732971     0.557596027851     0.000000362153     
10.635000228882     0.562897026539     0.000000366438     
10.739999771118     0.568198025227     0.000000370892     
10.845000267029     0.573333024979     0.000000375891     
10.949999809265     0.578634023666     0.000000380891     
11.055000305176     0.583935022354     0.000000385134     
11.159999847412     0.589236021042     0.000000390470     
11.265000343323     0.594371974468     0.000000396520     
11.369999885559     0.599672973156     0.000000401897     
11.475000381470     0.604807972908     0.000000407485     
11.579999923706     0.610108971596     0.000000413913     
11.685000419617     0.615409970284     0.000000419963     
11.789999961853     0.620876014233     0.000000425719     
11.895000457764     0.626012027264     0.000000432945     
12.000000000000     0.631313025951     0.000000440339     
12.104999542236     0.636614024639     0.000000446515     
12.210000038147     0.641749024391     0.000000453447     
12.314999580383     0.647050023079     0.000000461178     
12.420000076294     0.652351021767     0.000000468488     
12.524999618530     0.657652020454     0.000000475966     
12.630000114441     0.662787020206     0.000000484327     
12.734999656677     0.668088018894     0.000000492604     
12.840000152588     0.673389017582     0.000000500040     
12.944999694824     0.678524971008     0.000000508064     
13.050000190735     0.683825016022     0.000000517139     
13.154999732971     0.689126014709     0.000000525710     
13.260000228882     0.694262027740     0.000000534239     
13.364999771118     0.699728012085     0.000000543565     
13.470000267029     0.704864025116     0.000000552514     
13.574999809265     0.710165023804     0.000000560707     
13.680000305176     0.715466022491     0.000000570076     
13.784999847412     0.720767021179     0.000000579781     
13.890000343323     0.725902020931     0.000000588688     
13.994999885559     0.731203019619     0.000000597678     
14.100000381470     0.736504018307     0.000000607299     
14.204999923706     0.741639018059     0.000000616290     
14.310000419617     0.746940016747     0.000000624945     
14.414999961853     0.752241015434     0.000000634566     
14.520000457764     0.757542014122     0.000000644229     
14.625000000000     0.762843012810     0.000000652589     
14.729999542236     0.768144011497     0.000000661370     
14.835000038147     0.773279011250     0.000000670739     
14.939999580383     0.778580009937     0.000000679688     
15.045000076294     0.783716022968     0.000000688301     
15.149999618530     0.789017021656     0.000000697796     
15.255000114441     0.794318020344     0.000000706828     
15.359999656677     0.799619019032     0.000000714811     
15.465000152588     0.804920017719     0.000000723298     
15.569999694824     0.810055017471     0.000000732498     
15.675000190735     0.815356016159     0.000000741153     
15.779999732971     0.820657014847     0.000000749724     
15.885000228882     0.825958013535     0.000000758883     
15.989999771118     0.831259012222     0.000000767579     
16.094999313354     0.836394011974     0.000000775604     
16.200000762939     0.841695010662     0.000000784721     
16.305000305176     0.846996009350     0.000000794090     
16.409999847412     0.852297008038     0.000000802450     
16.514999389648     0.857432007790     0.000000810979     
16.620000839233     0.862733006477     0.000000820348     
16.725000381470     0.868034005165     0.000000828960     
16.829999923706     0.873335003853     0.000000837405     
16.934999465942     0.878471016884     0.000000847110     
17.040000915527     0.883772015572     0.000000856647     
17.145000457764     0.888907015324     0.000000865008     
17.250000000000     0.894208014011     0.000000873999     
17.354999542236     0.899509012699     0.000000883578     
17.459999084473     0.904810011387     0.000000892862     
17.565000534058     0.910111010075     0.000000902063     
17.670000076294     0.915246009827     0.000000911978     
17.774999618530     0.920713007450     0.000000921599     
17.879999160767     0.925848007202     0.000000930212     
17.985000610352     0.931149005890     0.000000939749     
18.090000152588     0.936450004578     0.000000949916     
18.194999694824     0.941585004330     0.000000959411     
18.299999237061     0.946886003017     0.000000968822     
18.405000686646     0.952187001705     0.000000979115     
18.510000228882     0.957323014736     0.000000988736     
18.614999771118     0.962788999081     0.000000997979     
18.719999313354     0.967925012112     0.000001008314     
18.825000762939     0.973224997520     0.000001018776     
18.930000305176     0.978525996208     0.000001028355     
19.034999847412     0.983662009239     0.000001038438     
19.125000000000     0.991281986237     0.000001057339     
19.229999542236     0.996582984924     0.000001067746     
19.334999084473     1.001883983612     0.000001077769     
19.440000534058     1.007019042969     0.000001088176     
19.545000076294     1.012320041656     0.000001099740     
19.649999618530     1.017621040344     0.000001110148     
19.754999160767     1.022922039032     0.000001120170     
19.860000610352     1.028056979179     0.000001131349     
19.965000152588     1.033357977867     0.000001143298     
20.069999694824     1.038825035095     0.000001154091     
20.174999237061     1.043959975243     0.000001165270     
20.280000686646     1.049260973930     0.000001177990     
20.385000228882     1.054396986961     0.000001189554     
20.489999771118     1.059697985649     0.000001201118     
20.594999313354     1.064998984337     0.000001214224     
20.700000762939     1.070134043694     0.000001228101     
20.805000305176     1.075600981712     0.000001240821     
20.909999847412     1.080901026726     0.000001253927     
21.014999389648     1.086037039757     0.000001268190     
21.120000839233     1.091338038445     0.000001282452     
21.225000381470     1.096639037132     0.000001297100     
21.329999923706     1.101773977280     0.000001313289     
21.434999465942     1.107241034508     0.000001329094     
21.540000915527     1.112375974655     0.000001345283     
21.645000457764     1.117676973343     0.000001361858     
21.750000000000     1.122977972031     0.000001379975     
21.854999542236     1.128113031387     0.000001398092     
21.959999084473     1.133414030075     0.000001416980     
22.065000534058     1.138715028763     0.000001437025     
22.170000076294     1.144016027451     0.000001457455     
22.274999618530     1.149317026138     0.000001478270     
22.379999160767     1.154618024826     0.000001500627     
22.485000610352     1.159752964973     0.000001524526     
22.590000152588     1.165053963661     0.000001548039     
22.694999694824     1.170354962349     0.000001572324     
22.799999237061     1.175655961037     0.000001598921     
22.905000686646     1.180791974068     0.000001625904     
23.010000228882     1.186092972755     0.000001653272     
23.114999771118     1.191393971443     0.000001682568     
23.219999313354     1.196694970131     0.000001713791     
23.325000762939     1.197689056396     0.000001665222     
23.430000305176     1.192553043365     0.000001536090     
23.534999847412     1.187252044678     0.000001424304     
23.639999389648     1.182116985321     0.000001323312     
23.745000839233     1.176815986633     0.000001231956     
23.850000381470     1.171514987946     0.000001150237     
23.954999923706     1.166213989258     0.000001075456     
24.059999465942     1.160912990570     0.000001006457     
24.165000915527     1.155778050423     0.000000944011     
24.270000457764     1.150477051735     0.000000887733     
24.375000000000     1.145176053047     0.000000835309     
24.479999542236     1.140040040016     0.000000787511     
24.584999084473     1.134739041328     0.000000744339     
24.690000534058     1.129438996315     0.000000703479     
24.795000076294     1.124137997627     0.000000664932     
24.899999618530     1.118836998940     0.000000630626     
25.004999160767     1.113536000252     0.000000599017     
25.110000610352     1.108399987221     0.000000568951     
25.215000152588     1.103098988533     0.000000540812     
25.319999694824     1.097797989845     0.000000515756     
25.424999237061     1.092496991158     0.000000492243     
25.530000686646     1.087362051010     0.000000469115     
25.635000228882     1.081894993782     0.000000449070     
25.739999771118     1.076760053635     0.000000429797     
25.844999313354     1.071624994278     0.000000410909     
25.950000762939     1.066158056259     0.000000393948     
26.055000305176     1.061022996902     0.000000378915     
26.159999847412     1.055721998215     0.000000363111     
26.264999389648     1.050420999527     0.000000349234     
26.370000839233     1.045120000839     0.000000336514     
26.475000381470     1.039984941483     0.000000324179     
26.565000534058     1.032696008682     0.000000307872     
26.670000076294     1.027395009995     0.000000296444     
26.774999618530     1.022094011307     0.000000286697     
26.879999160767     1.016958951950     0.000000277833     
26.985000610352     1.011657953262     0.000000268296     
27.090000152588     1.006522059441     0.000000259179     
27.194999694824     1.001055955887     0.000000251322     
27.299999237061     0.995920002460     0.000000243550     
27.405000686646     0.990619003773     0.000000235525     
27.510000228882     0.985318005085     0.000000228383     
27.614999771118     0.980017006397     0.000000221535     
27.719999313354     0.974882006645     0.000000214519     
27.825000762939     0.969581007957     0.000000208175     
27.930000305176     0.964446008205     0.000000202923     
28.034999847412     0.958979010582     0.000000197546     
28.139999389648     0.953844010830     0.000000191454     
28.245000839233     0.948543012142     0.000000186118     
28.350000381470     0.943242013454     0.000000181203     
28.454999923706     0.937941014767     0.000000175153     
28.559999465942     0.932640016079     0.000000168557     
28.665000915527     0.927505016327     0.000000161876     
28.770000457764     0.922204017639     0.000000157171     
28.875000000000     0.916903018951     0.000000153978     
28.979999542236     0.911602020264     0.000000149441     
29.084999084473     0.906466007233     0.000000146584     
29.190000534058     0.901165008545     0.000000142803     
29.295000076294     0.895864009857     0.000000140156     
29.399999618530     0.890563011169     0.000000137509     
29.504999160767     0.885428011417     0.000000133013     
29.610000610352     0.880127012730     0.000000128938     
29.715000152588     0.874826014042     0.000000126375     
29.819999694824     0.869525015354     0.000000122888     
29.924999237061     0.864390015602     0.000000119401     
30.030000686646     0.859089016914     0.000000116796     
30.135000228882     0.853788018227     0.000000113856     
30.239999771118     0.848487019539     0.000000109906     
30.344999313354     0.843186020851     0.000000106587     
30.450000762939     0.838051021099     0.000000104108     
30.555000305176     0.832750022411     0.000000100915     
30.659999847412     0.827449023724     0.000000097891     
30.764999389648     0.822148025036     0.000000095412     
30.870000839233     0.816847026348     0.000000092345     
30.975000381470     0.811711013317     0.000000088564     
31.079999923706     0.806410014629     0.000000086085     
31.184999465942     0.801110029221     0.000000084026     
31.290000915527     0.795808970928     0.000000080791     
31.395000457764     0.790507972240     0.000000077640     
31.500000000000     0.785372018814     0.000000075203     
31.604999542236     0.780071020126     0.000000072263     
31.709999084473     0.774770021439     0.000000069070     
31.815000534058     0.769469022751     0.000000067053     
31.920000076294     0.764334022999     0.000000064994     
32.025001525879     0.759033024311     0.000000061339     
32.130001068115     0.753732025623     0.000000058440     
32.235000610352     0.748597025871     0.000000056382     
32.340000152588     0.743296027184     0.000000053609     
32.444999694824     0.737995028496     0.000000050920     
32.549999237061     0.732693970203     0.000000048903     
32.654998779297     0.727392971516     0.000000046298     
32.759998321533     0.722257971764     0.000000042811     
32.865001678467     0.716956973076     0.000000040375     
32.970001220703     0.711655974388     0.000000038652     
33.075000762939     0.706354975700     0.000000035879     
33.180000305176     0.701219022274     0.000000033064     
33.284999847412     0.695752978325     0.000000030964     
33.389999389648     0.690617024899     0.000000028233     
33.494998931885     0.685316026211     0.000000025124     
33.509998321533     0.674382984638     0.000000020697     
33.615001678467     0.669247984886     0.000000018039     
33.720001220703     0.663946986198     0.000000016257     
33.825000762939     0.658645987511     0.000000013997     
33.930000305176     0.653344988823     0.000000011043     
34.034999847412     0.648209989071     0.000000008885     
34.139999389648     0.642908990383     0.000000007269     
34.244998931885     0.637772977352     0.000000004630     
34.349998474121     0.632471978664     0.000000002063     
34.455001831055     0.627170979977     0.000000000190     
34.560001373291     0.621869981289     -0.000000002093     
34.665000915527     0.616734981537     -0.000000004896     
34.770000457764     0.611433982849     -0.000000006575     
34.875000000000     0.606132984161     -0.000000008475     
34.979999542236     0.600831985474     -0.000000011213     
35.084999084473     0.595530986786     -0.000000013451     
