
Cycle 1
Physical Cycle 1
Step 1

Time (s),          Potential (V),         Current (A)
0.104999996722     0.002475999994     -0.000003312504     
0.209999993443     0.007922000252     -0.000003125292     
0.314999997616     0.013039000332     -0.000002961004     
0.419999986887     0.018319999799     -0.000002796716     
0.449999988079     0.028552999720     -0.000002487347     
0.555000007153     0.033833999187     -0.000002343477     
0.660000026226     0.039115998894     -0.000002208069     
0.764999985695     0.044231999665     -0.000002080355     
0.870000004768     0.049513000995     -0.000001950333     
0.975000023842     0.054795000702     -0.000001827235     
1.080000042915     0.060075998306     -0.000001710676     
1.184999942780     0.065357998013     -0.000001595657     
1.289999961853     0.070638999343     -0.000001486407     
1.394999980927     0.075920999050     -0.000001380620     
1.500000000000     0.081202000380     -0.000001276756     
1.605000019073     0.086318001151     -0.000001179432     
1.710000038147     0.091600000858     -0.000001081723     
1.815000057220     0.096881002188     -0.000000986707     
1.919999957085     0.102163001895     -0.000000894383     
2.025000095367     0.107444003224     -0.000000803983     
2.130000114441     0.112561002374     -0.000000713583     
2.234999895096     0.117842003703     -0.000000626645     
2.339999914169     0.123122997582     -0.000000543170     
2.444999933243     0.128405004740     -0.000000462387     
2.549999952316     0.133686006069     -0.000000379295     
2.654999971390     0.138968005776     -0.000000302744     
2.759999990463     0.144249007106     -0.000000230809     
2.865000009537     0.149531006813     -0.000000151949     
2.970000028610     0.154811993241     -0.000000076936     
3.029999971390     0.163229003549     0.000000042912     
3.134999990463     0.168511003256     0.000000112455     
3.240000009537     0.173627004027     0.000000180484     
3.345000028610     0.178909003735     0.000000254486     
3.450000047684     0.184025004506     0.000000326133     
3.555000066757     0.189307004213     0.000000392226     
3.660000085831     0.194588005543     0.000000466649     
3.765000104904     0.199704006314     0.000000539137     
3.869999885559     0.204986006021     0.000000607040     
3.974999904633     0.210267007351     0.000000672838     
4.079999923706     0.215549007058     0.000000752899     
4.184999942780     0.220664992929     0.000000832455     
4.289999961853     0.225945994258     0.000000908014     
4.394999980927     0.231062993407     0.000000987780     
4.489999771118     0.238490000367     0.000001107881     
4.594999790192     0.243606001139     0.000001188664     
4.699999809265     0.248888000846     0.000001271755     
4.804999828339     0.254334002733     0.000001359847     
4.909999847412     0.259451001883     0.000001448709     
5.014999866486     0.264732003212     0.000001538339     
5.119999885559     0.270013004541     0.000001629509     
5.224999904633     0.275294989347     0.000001724525     
5.329999923706     0.280575990677     0.000001818387     
5.434999942780     0.285692989826     0.000001914557     
5.539999961853     0.290973991156     0.000002012651     
5.644999980927     0.296256005764     0.000002106898     
5.750000000000     0.301537007093     0.000002204991     
5.855000019073     0.306652992964     0.000002307701     
5.960000038147     0.312099993229     0.000002406949     
6.065000057220     0.317380994558     0.000002504273     
6.170000076294     0.322497993708     0.000002606214     
6.275000095367     0.327778995037     0.000002707385     
6.380000114441     0.333061009645     0.000002808556     
6.485000133514     0.338176995516     0.000002912420     
6.590000152588     0.343457996845     0.000003013976     
6.695000171661     0.348904997110     0.000003117070     
6.800000190735     0.354021012783     0.000003220549     
6.905000209808     0.359302997589     0.000003326337     
7.010000228882     0.364583998919     0.000003426738     
7.114999771118     0.369866013527     0.000003531372     
7.219999790192     0.375147014856     0.000003638313     
7.324999809265     0.380263000727     0.000003739869     
7.429999828339     0.385544985533     0.000003842579     
7.534999847412     0.390825986862     0.000003950289     
7.639999866486     0.396108001471     0.000004053384     
7.744999885559     0.401389002800     0.000004155324     
7.849999904633     0.406670987606     0.000004262265     
7.954999923706     0.411951988935     0.000004369207     
8.060000419617     0.417068004608     0.000004472686     
8.164999961853     0.422349989414     0.000004578089     
8.270000457764     0.427630990744     0.000004683876     
8.375000000000     0.432913005352     0.000004791202     
8.479999542236     0.438194006681     0.000004896989     
8.585000038147     0.443475991488     0.000005006239     
8.689999580383     0.448756992817     0.000005114719     
8.795000076294     0.454039007425     0.000005223583     
8.899999618530     0.459320008755     0.000005333602     
9.005000114441     0.464601010084     0.000005445160     
9.109999656677     0.469718009233     0.000005558640     
9.215000152588     0.474999010563     0.000005674045     
9.319999694824     0.480280995369     0.000005784064     
9.425000190735     0.485561996698     0.000005901007     
9.529999732971     0.490844011307     0.000006022181     
9.635000228882     0.495959997177     0.000006136816     
9.739999771118     0.501241028309     0.000006256836     
9.845000267029     0.506523013115     0.000006379934     
9.949999809265     0.511803984642     0.000006507264     
10.055000305176     0.517086029053     0.000006630746     
10.159999847412     0.522367000580     0.000006754614     
10.265000343323     0.527648985386     0.000006888098     
10.369999885559     0.532764971256     0.000007019274     
10.475000381470     0.538210988045     0.000007154682     
10.579999923706     0.543327987194     0.000007289320     
10.685000419617     0.548609018326     0.000007421651     
10.789999961853     0.553891003132     0.000007560520     
10.895000457764     0.559171974659     0.000007697467     
11.000000000000     0.564454019070     0.000007834413     
11.104999542236     0.569570004940     0.000007978669     
11.210000038147     0.575016021729     0.000008118308     
11.314999580383     0.580133020878     0.000008260255     
11.420000076294     0.585413992405     0.000008408742     
11.524999618530     0.590695977211     0.000008556459     
11.630000114441     0.595977008343     0.000008703792     
11.734999656677     0.601094007492     0.000008848817     
11.840000152588     0.606374979019     0.000009000766     
11.944999694824     0.611656010151     0.000009152330     
12.050000190735     0.616937994957     0.000009303510     
12.154999732971     0.622219026089     0.000009457767     
12.210000038147     0.631627023220     0.000009735016     
12.314999580383     0.636907994747     0.000009887842     
12.420000076294     0.642024993896     0.000010044489     
12.524999618530     0.647306025028     0.000010197315     
12.630000114441     0.652588009834     0.000010357782     
12.734999656677     0.657868981361     0.000010518249     
12.840000152588     0.663150012493     0.000010674896     
12.944999694824     0.668431997299     0.000010835363     
13.050000190735     0.673713028431     0.000010988189     
13.154999732971     0.678995013237     0.000011152477     
13.260000228882     0.684275984764     0.000011320586     
13.364999771118     0.689558029175     0.000011484874     
13.470000267029     0.694839000702     0.000011645341     
13.574999809265     0.699954986572     0.000011809629     
13.680000305176     0.705236971378     0.000011973917     
13.784999847412     0.710518002510     0.000012134384     
13.890000343323     0.715799987316     0.000012298672     
13.994999885559     0.721081018448     0.000012459140     
14.100000381470     0.726363003254     0.000012619607     
14.204999923706     0.731643974781     0.000012783895     
14.310000419617     0.736760020256     0.000012948183     
14.414999961853     0.742206990719     0.000013104830     
14.520000457764     0.747488021851     0.000013269117     
14.625000000000     0.752605021000     0.000013429585     
14.729999542236     0.757885992527     0.000013593873     
14.835000038147     0.763167977333     0.000013746699     
14.939999580383     0.768449008465     0.000013910987     
15.045000076294     0.773729979992     0.000014071454     
15.149999618530     0.779012024403     0.000014228101     
15.255000114441     0.784292995930     0.000014384747     
15.359999656677     0.789574980736     0.000014541394     
15.465000152588     0.794856011868     0.000014698041     
15.569999694824     0.799973011017     0.000014858508     
15.675000190735     0.805253982544     0.000015015154     
15.779999732971     0.810536026955     0.000015175622     
15.885000228882     0.815816998482     0.000015336089     
15.989999771118     0.821098029613     0.000015488915     
16.094999313354     0.826380014420     0.000015649382     
16.200000762939     0.831660985947     0.000015809850     
16.305000305176     0.836942970753     0.000015966496     
16.409999847412     0.842224001884     0.000016123144     
16.514999389648     0.847505986691     0.000016279790     
16.620000839233     0.852621972561     0.000016444077     
16.725000381470     0.858067989349     0.000016604545     
16.829999923706     0.863184988499     0.000016761192     
16.934999465942     0.868466019630     0.000016925480     
17.040000915527     0.873748004436     0.000017085948     
17.145000457764     0.879028975964     0.000017246413     
17.250000000000     0.884311020374     0.000017406881     
17.354999542236     0.889591991901     0.000017567349     
17.459999084473     0.894873023033     0.000017727816     
17.565000534058     0.899990022182     0.000017892104     
17.670000076294     0.905435979366     0.000018056391     
17.774999618530     0.910552978516     0.000018216859     
17.879999160767     0.915834009647     0.000018381146     
17.985000610352     0.921115994453     0.000018545436     
18.090000152588     0.926397025585     0.000018709723     
18.194999694824     0.931677997112     0.000018874010     
18.299999237061     0.936959981918     0.000019042120     
18.405000686646     0.942241013050     0.000019210229     
18.510000228882     0.947522997856     0.000019378336     
18.614999771118     0.952638983727     0.000019550265     
18.719999313354     0.957921028137     0.000019722194     
18.825000762939     0.963201999664     0.000019890304     
18.930000305176     0.968482971191     0.000020066054     
19.034999847412     0.973765015602     0.000020237983     
19.139999389648     0.979045987129     0.000020409912     
19.245000839233     0.984327971935     0.000020589483     
19.350000381470     0.989609003067     0.000020765234     
19.454999923706     0.994890987873     0.000020948624     
19.559999465942     1.000172019005     0.000021132015     
19.665000915527     1.005453944206     0.000021319227     
19.770000457764     1.010570049286     0.000021502618     
19.875000000000     1.015851020813     0.000021693651     
19.979999542236     1.021132946014     0.000021884684     
20.084999084473     1.026414036751     0.000022071896     
20.190000534058     1.031695961952     0.000022274389     
20.295000076294     1.036977052689     0.000022476885     
20.399999618530     1.042258977890     0.000022679378     
20.504999160767     1.047539949417     0.000022885693     
20.610000610352     1.052656054497     0.000023099650     
20.715000152588     1.057937979698     0.000023309785     
20.819999694824     1.063218951225     0.000023519920     
20.924999237061     1.068500995636     0.000023741519     
21.030000686646     1.073781967163     0.000023970759     
21.135000228882     1.079064011574     0.000024196175     
21.239999771118     1.084344983101     0.000024433057     
21.344999313354     1.089625954628     0.000024673758     
21.450000762939     1.094907999039     0.000024914460     
21.555000305176     1.100023984909     0.000025166622     
21.659999847412     1.105306029320     0.000025422605     
21.764999389648     1.110587000847     0.000025678590     
21.870000839233     1.115869045258     0.000025953676     
21.975000381470     1.121150016785     0.000026228761     
22.079999923706     1.126430988312     0.000026507671     
22.184999465942     1.131548047066     0.000026794218     
22.290000915527     1.136994004250     0.000027088408     
22.395000457764     1.142110943794     0.000027386419     
22.500000000000     1.147392034531     0.000027692071     
22.604999542236     1.152673959732     0.000028013006     
22.709999084473     1.157955050468     0.000028337761     
22.815000534058     1.163236021996     0.000028662516     
22.920000076294     1.168517947197     0.000029006374     
23.024999618530     1.173799037933     0.000029361696     
23.129999160767     1.179080963135     0.000029724657     
23.235000610352     1.184196949005     0.000030102901     
23.340000152588     1.189643979073     0.000030492609     
23.444999694824     1.194759964943     0.000030901418     
23.549999237061     1.198390960693     0.000031042782     
23.655000686646     1.194265007973     0.000030095260     
23.760000228882     1.188982963562     0.000029124814     
23.864999771118     1.183701992035     0.000028238424     
23.969999313354     1.178421020508     0.000027413163     
24.075000762939     1.173138976097     0.000026629930     
24.180000305176     1.168022990227     0.000025896366     
24.284999847412     1.162740945816     0.000025216290     
24.389999389648     1.157459974289     0.000024562960     
24.495000839233     1.152178049088     0.000023951656     
24.600000381470     1.146896958351     0.000023382378     
24.704999923706     1.141615986824     0.000022851307     
24.809999465942     1.136333942413     0.000022346981     
24.915000915527     1.131052970886     0.000021857939     
25.020000457764     1.125771045685     0.000021399461     
25.125000000000     1.120654940605     0.000020963907     
25.229999542236     1.115373015404     0.000020535994     
25.334999084473     1.110092043877     0.000020115722     
25.440000534058     1.104810953140     0.000019737477     
25.545000076294     1.099529027939     0.000019378336     
25.649999618530     1.094248056412     0.000019026837     
25.754999160767     1.088966012001     0.000018694440     
25.860000610352     1.083850026131     0.000018377326     
25.965000152588     1.078402996063     0.000018071674     
26.069999694824     1.073287010193     0.000017769844     
26.174999237061     1.068006038666     0.000017487115     
26.280000686646     1.062723994255     0.000017223490     
26.385000228882     1.057278037071     0.000016963686     
26.489999771118     1.052160978317     0.000016715345     
26.594999313354     1.046880006790     0.000016467002     
26.700000762939     1.041597962379     0.000016226300     
26.805000305176     1.036316990852     0.000015997062     
26.909999847412     1.031201004982     0.000015767822     
27.014999389648     1.025918960571     0.000015561507     
27.120000839233     1.020637989044     0.000015339911     
27.225000381470     1.015355944633     0.000015156519     
27.329999923706     1.010074973106     0.000014942562     
27.434999465942     1.004793047905     0.000014736247     
27.540000915527     0.999677002430     0.000014556676     
27.645000457764     0.994229972363     0.000014365644     
27.750000000000     0.988949000835     0.000014182253     
27.854999542236     0.983833014965     0.000014002682     
27.959999084473     0.978550970554     0.000013838394     
28.065000534058     0.973269999027     0.000013666465     
28.170000076294     0.967988014221     0.000013505998     
28.274999618530     0.962706983089     0.000013334068     
28.379999160767     0.957424998283     0.000013165960     
28.485000610352     0.952144026756     0.000013013134     
28.590000152588     0.946862995625     0.000012856487     
28.694999694824     0.941745996475     0.000012696020     
28.799999237061     0.936465024948     0.000012539373     
28.905000686646     0.931182980537     0.000012390368     
29.010000228882     0.925902009010     0.000012245183     
29.114999771118     0.920620024204     0.000012092357     
29.219999313354     0.915338993073     0.000011943352     
29.325000762939     0.910058021545     0.000011805808     
29.430000305176     0.904775977135     0.000011672086     
29.534999847412     0.899495005608     0.000011523080     
29.639999389648     0.894213020802     0.000011385537     
29.745000839233     0.889096975327     0.000011244173     
29.850000381470     0.883814990520     0.000011102809     
29.954999923706     0.878534018993     0.000010972907     
30.059999465942     0.873252987862     0.000010831543     
30.165000915527     0.867971003056     0.000010697820     
30.270000457764     0.862689971924     0.000010560277     
30.375000000000     0.857407987118     0.000010430374     
30.479999542236     0.852127015591     0.000010289010     
30.584999084473     0.846844971180     0.000010166750     
30.690000534058     0.841728985310     0.000010036848     
30.795000076294     0.836448013783     0.000009914587     
30.899999618530     0.831166028976     0.000009792326     
31.004999160767     0.825884997845     0.000009662424     
31.110000610352     0.820603013039     0.000009536342     
31.215000152588     0.815321981907     0.000009406440     
31.319999694824     0.810039997101     0.000009284180     
31.424999237061     0.804759025574     0.000009150457     
31.530000686646     0.799476981163     0.000009032017     
31.635000228882     0.794196009636     0.000008917397     
31.739999771118     0.788914978504     0.000008783674     
31.844999313354     0.783632993698     0.000008665234     
31.950000762939     0.778517007828     0.000008539153     
32.055000305176     0.773235023022     0.000008416892     
32.159999847412     0.767953991890     0.000008286990     
32.264999389648     0.762672007084     0.000008160908     
32.369998931885     0.757390975952     0.000008034827     
32.474998474121     0.752110004425     0.000007920207     
32.580001831055     0.746993005276     0.000007794126     
32.685001373291     0.741546988487     0.000007668045     
32.790000915527     0.736265003681     0.000007545784     
32.895000457764     0.731149017811     0.000007431164     
33.000000000000     0.725866973400     0.000007312724     
33.104999542236     0.720586001873     0.000007190463     
33.209999084473     0.715304970741     0.000007072023     
33.314998626709     0.710022985935     0.000006957404     
33.419998168945     0.704742014408     0.000006835143     
33.525001525879     0.699460029602     0.000006716703     
33.630001068115     0.694178998470     0.000006605904     
33.735000610352     0.688897013664     0.000006487464     
33.840000152588     0.683781027794     0.000006372844     
33.944999694824     0.678335011005     0.000006262045     
34.049999237061     0.673053026199     0.000006143605     
34.154998779297     0.667936980724     0.000006028986     
34.259998321533     0.662654995918     0.000005910546     
34.365001678467     0.657374024391     0.000005799747     
34.470001220703     0.652091979980     0.000005681307     
34.575000762939     0.646811008453     0.000005570508     
34.680000305176     0.641529977322     0.000005459709     
34.784999847412     0.636247992516     0.000005341269     
34.889999389648     0.630967020988     0.000005230470     
34.994998931885     0.625684976578     0.000005119671     
35.099998474121     0.620568990707     0.000005008872     
35.205001831055     0.615122020245     0.000004898073     
35.310001373291     0.610005974770     0.000004787274     
