
Cycle 1
Physical Cycle 1
Step 1

Time (s),          Potential (V),         Current (A)
0.104999996722     0.002475999994     -0.000000171929     
0.209999993443     0.007757000159     -0.000000156647     
0.314999997616     0.013039000332     -0.000000149005     
0.419999986887     0.018319999799     -0.000000133723     
0.449999988079     0.028387999162     -0.000000095401     
0.555000007153     0.033668998629     -0.000000086553     
0.660000026226     0.038950998336     -0.000000077706     
0.764999985695     0.044231999665     -0.000000069243     
0.795000016689     0.054299999028     -0.000000054355     
0.899999976158     0.059581000358     -0.000000047792     
1.004999995232     0.064698003232     -0.000000041903     
1.110000014305     0.069978997111     -0.000000036517     
1.215000033379     0.075259998441     -0.000000031721     
1.320000052452     0.080541998148     -0.000000026631     
1.424999952316     0.085822999477     -0.000000021877     
1.529999971390     0.091104999185     -0.000000017964     
1.625000000000     0.097871996462     -0.000000012154     
1.730000019073     0.103152997792     -0.000000008135     
1.835000038147     0.108433999121     -0.000000004239     
1.940000057220     0.113715998828     0.000000000065     
2.045000076294     0.118831999600     0.000000004374     
2.150000095367     0.124113999307     0.000000009055     
2.255000114441     0.129394993186     0.000000014376     
2.359999895096     0.134676992893     0.000000019685     
2.464999914169     0.139792993665     0.000000025429     
2.569999933243     0.144908994436     0.000000032737     
2.674999952316     0.150190994143     0.000000040510     
2.779999971390     0.155471995473     0.000000048086     
2.884999990463     0.160588994622     0.000000057800     
2.990000009537     0.165869995952     0.000000068588     
3.095000028610     0.170986995101     0.000000079021     
3.140000104904     0.180723994970     0.000000102905     
3.244999885559     0.186005994678     0.000000116242     
3.349999904633     0.191286996007     0.000000128989     
3.454999923706     0.196567997336     0.000000143461     
3.559999942780     0.201849997044     0.000000158397     
3.664999961853     0.207130998373     0.000000171859     
3.769999980927     0.212247997522     0.000000185112     
3.875000000000     0.217528998852     0.000000199331     
3.980000019073     0.222810998559     0.000000212373     
4.085000038147     0.228091999888     0.000000223985     
4.190000057220     0.233373001218     0.000000235975     
4.295000076294     0.238655000925     0.000000247460     
4.400000095367     0.243936002254     0.000000257936     
4.505000114441     0.249218001962     0.000000267865     
4.610000133514     0.254334002733     0.000000276994     
4.715000152588     0.259615987539     0.000000286250     
4.820000171661     0.264896988869     0.000000295127     
4.925000190735     0.270179003477     0.000000302826     
5.030000209808     0.275460004807     0.000000310356     
5.135000228882     0.280741006136     0.000000318476     
5.239999771118     0.286022990942     0.000000325796     
5.344999790192     0.291139006615     0.000000331602     
5.449999809265     0.296420991421     0.000000338838     
5.554999828339     0.301701992750     0.000000345906     
5.659999847412     0.306984007359     0.000000351417     
5.764999866486     0.312265008688     0.000000357265     
5.869999885559     0.317546010017     0.000000364081     
5.974999904633     0.322827994823     0.000000369844     
6.079999923706     0.327944010496     0.000000374851     
6.184999942780     0.333391010761     0.000000380741     
6.289999961853     0.338506996632     0.000000386631     
6.394999980927     0.343789011240     0.000000391847     
6.500000000000     0.349070012569     0.000000397317     
6.605000019073     0.354351013899     0.000000402575     
6.710000038147     0.359468013048     0.000000408171     
6.815000057220     0.364914000034     0.000000413724     
6.920000076294     0.370030999184     0.000000418647     
7.025000095367     0.375312000513     0.000000423653     
7.130000114441     0.380593985319     0.000000429669     
7.235000133514     0.385874986649     0.000000434844     
7.340000152588     0.391155987978     0.000000439261     
7.445000171661     0.396438002586     0.000000445235     
7.550000190735     0.401719003916     0.000000451251     
7.655000209808     0.407000988722     0.000000455753     
7.760000228882     0.412281990051     0.000000461306     
7.864999771118     0.417564004660     0.000000467827     
7.969999790192     0.422679990530     0.000000473254     
8.074999809265     0.427960991859     0.000000478429     
8.180000305176     0.433243006468     0.000000485203     
8.284999847412     0.438524007797     0.000000491766     
8.390000343323     0.443805992603     0.000000497908     
8.494999885559     0.449086993933     0.000000504639     
8.600000381470     0.454369008541     0.000000511581     
8.704999923706     0.459650009871     0.000000519070     
8.810000419617     0.464765995741     0.000000526558     
8.914999961853     0.470048010349     0.000000533878     
9.020000457764     0.475329011679     0.000000541830     
9.125000000000     0.480610996485     0.000000550875     
9.229999542236     0.485891997814     0.000000559247     
9.335000038147     0.491174012423     0.000000567199     
9.439999580383     0.496289998293     0.000000577127     
9.545000076294     0.501570999622     0.000000586972     
9.649999618530     0.506852984428     0.000000595596     
9.755000114441     0.512134015560     0.000000605567     
9.859999656677     0.517416000366     0.000000616632     
9.965000152588     0.522531986237     0.000000626771     
10.069999694824     0.527979016304     0.000000636826     
10.175000190735     0.533259987831     0.000000648395     
10.279999732971     0.538541972637     0.000000659838     
10.385000228882     0.543658018112     0.000000670861     
10.489999771118     0.548938989639     0.000000682346     
10.595000267029     0.554220974445     0.000000694336     
10.699999809265     0.559502005577     0.000000706705     
10.805000305176     0.564783990383     0.000000719242     
10.909999847412     0.570065021515     0.000000731443     
11.015000343323     0.575347006321     0.000000744317     
11.119999885559     0.580462992191     0.000000757990     
11.225000381470     0.585744023323     0.000000771242     
11.329999923706     0.591026008129     0.000000783989     
11.435000419617     0.596306979656     0.000000798378     
11.539999961853     0.601589024067     0.000000812934     
11.645000457764     0.606869995594     0.000000826186     
11.750000000000     0.611985981464     0.000000840575     
11.854999542236     0.617433011532     0.000000855762     
11.960000038147     0.622548997402     0.000000869646     
12.064999580383     0.627830982208     0.000000883361     
12.170000076294     0.633112013340     0.000000898127     
12.274999618530     0.638229012489     0.000000912305     
12.380000114441     0.643675029278     0.000000925431     
12.484999656677     0.648792028427     0.000000939062     
12.590000152588     0.654072999954     0.000000952441     
12.694999694824     0.659353971481     0.000000965357     
12.800000190735     0.664636015892     0.000000977810     
12.904999732971     0.669916987419     0.000000989379     
13.010000228882     0.675198972225     0.000001001075     
13.114999771118     0.680315017700     0.000001012981     
13.220000267029     0.685761988163     0.000001023498     
13.324999809265     0.690877974033     0.000001033217     
13.350000381470     0.701771020889     0.000001057488     
13.454999923706     0.707051992416     0.000001065566     
13.560000419617     0.712333977222     0.000001074029     
13.664999961853     0.717615008354     0.000001083262     
13.770000457764     0.722896993160     0.000001091725     
13.875000000000     0.728012979031     0.000001099034     
13.979999542236     0.733460009098     0.000001107881     
14.085000038147     0.738575994968     0.000001116344     
14.189999580383     0.744022011757     0.000001123653     
14.295000076294     0.749303996563     0.000001130962     
14.399999618530     0.754419982433     0.000001140194     
14.505000114441     0.759702026844     0.000001147888     
14.609999656677     0.764982998371     0.000001154812     
14.715000152588     0.770264983177     0.000001163275     
14.819999694824     0.775546014309     0.000001172123     
14.925000190735     0.780826985836     0.000001180201     
15.029999732971     0.785943984985     0.000001188664     
15.135000228882     0.791390001774     0.000001196743     
15.239999771118     0.796671986580     0.000001205590     
15.345000267029     0.801787972450     0.000001214438     
15.449999809265     0.807070016861     0.000001222901     
15.555000305176     0.812350988388     0.000001231364     
15.659999847412     0.817632019520     0.000001241750     
15.765000343323     0.822914004326     0.000001251367     
15.869999885559     0.828194975853     0.000001259830     
15.975000381470     0.833477020264     0.000001270217     
16.079999923706     0.838757991791     0.000001280988     
16.184999465942     0.844039976597     0.000001290220     
16.290000915527     0.849156022072     0.000001300222     
16.395000457764     0.854436993599     0.000001312147     
16.500000000000     0.859718978405     0.000001322918     
16.604999542236     0.865164995193     0.000001332920     
16.709999084473     0.870281994343     0.000001344460     
16.815000534058     0.875563025475     0.000001356385     
16.920000076294     0.880845010281     0.000001368310     
17.024999618530     0.885960996151     0.000001379851     
17.129999160767     0.891408026218     0.000001391006     
17.235000610352     0.896524012089     0.000001403701     
17.340000152588     0.901804983616     0.000001416395     
17.444999694824     0.907087028027     0.000001428705     
17.549999237061     0.912367999554     0.000001441015     
17.655000686646     0.917649984360     0.000001454864     
17.760000228882     0.922931015491     0.000001468327     
17.864999771118     0.928213000298     0.000001480637     
17.969999313354     0.933493971825     0.000001494870     
18.075000762939     0.938775002956     0.000001509488     
18.180000305176     0.944056987762     0.000001523337     
18.284999847412     0.949172973633     0.000001537570     
18.389999389648     0.954455018044     0.000001553727     
18.495000839233     0.959735989571     0.000001568729     
18.600000381470     0.965017974377     0.000001584116     
18.704999923706     0.970299005508     0.000001600273     
18.809999465942     0.975579977036     0.000001617199     
18.915000915527     0.980862021446     0.000001634510     
19.020000457764     0.986142992973     0.000001652205     
19.125000000000     0.991424977779     0.000001670285     
19.229999542236     0.996706008911     0.000001689519     
19.334999084473     1.001822948456     0.000001709522     
19.440000534058     1.007269024849     0.000001729526     
19.545000076294     1.012549996376     0.000001750299     
19.649999618530     1.017667055130     0.000001772610     
19.754999160767     1.022948026657     0.000001795306     
19.860000610352     1.028229951859     0.000001818387     
19.965000152588     1.033511042595     0.000001843391     
20.069999694824     1.038792967796     0.000001869934     
20.174999237061     1.043908953667     0.000001895708     
20.280000686646     1.049190044403     0.000001923020     
20.385000228882     1.054471969604     0.000001952641     
20.489999771118     1.059752941132     0.000001982261     
20.594999313354     1.065034985542     0.000002012651     
20.700000762939     1.070315957069     0.000002044964     
20.805000305176     1.075433015823     0.000002078816     
20.909999847412     1.080713987350     0.000002113437     
21.014999389648     1.085994958878     0.000002149213     
21.120000839233     1.091441988945     0.000002186142     
21.225000381470     1.096557974815     0.000002224226     
21.329999923706     1.101840019226     0.000002263848     
21.434999465942     1.107120990753     0.000002303855     
21.540000915527     1.112403035164     0.000002345015     
21.645000457764     1.117684006691     0.000002388869     
21.750000000000     1.122964978218     0.000002433107     
21.854999542236     1.128247022629     0.000002476961     
21.959999084473     1.133363008499     0.000002523892     
22.065000534058     1.138810038567     0.000002571977     
22.170000076294     1.143926024437     0.000002618908     
22.274999618530     1.149207949638     0.000002667378     
22.379999160767     1.154489040375     0.000002718541     
22.485000610352     1.159770965576     0.000002769703     
22.590000152588     1.165052056313     0.000002820481     
22.694999694824     1.170333027840     0.000002873182     
22.799999237061     1.175449967384     0.000002927038     
22.905000686646     1.180896043777     0.000002980893     
23.010000228882     1.186012983322     0.000003035518     
23.114999771118     1.191458940506     0.000003090142     
23.219999313354     1.196575999260     0.000003146306     
23.325000762939     1.197731018066     0.000003104376     
23.430000305176     1.192448973656     0.000002931269     
23.534999847412     1.187168002129     0.000002770088     
23.639999389648     1.182052016258     0.000002620832     
23.745000839233     1.176769971848     0.000002479654     
23.850000381470     1.171489000320     0.000002345015     
23.954999923706     1.166206955910     0.000002218840     
24.059999465942     1.161090970039     0.000002099974     
24.165000915527     1.155644059181     0.000001986108     
24.270000457764     1.150527954102     0.000001877628     
24.375000000000     1.145246982574     0.000001776457     
24.479999542236     1.139965057373     0.000001680287     
24.584999084473     1.134683966637     0.000001587963     
24.690000534058     1.129402041435     0.000001500641     
24.795000076294     1.124120950699     0.000001418319     
24.899999618530     1.118839025497     0.000001340229     
25.004999160767     1.113723039627     0.000001266370     
25.110000610352     1.108441948891     0.000001195973     
25.215000152588     1.103160023689     0.000001130193     
25.319999694824     1.097879052162     0.000001068644     
25.424999237061     1.092597007751     0.000001009403     
25.530000686646     1.087316036224     0.000000952855     
25.635000228882     1.082033991814     0.000000901308     
25.739999771118     1.076918005943     0.000000852838     
25.844999313354     1.071470975876     0.000000805907     
25.950000762939     1.066190004349     0.000000762438     
26.055000305176     1.061074018478     0.000000723200     
26.159999847412     1.055791974068     0.000000685117     
26.264999389648     1.050511002541     0.000000648957     
26.370000839233     1.045228958130     0.000000616259     
26.475000381470     1.039947986603     0.000000585869     
26.579999923706     1.034665942192     0.000000556633     
26.684999465942     1.029549956322     0.000000529706     
26.790000915527     1.024268984795     0.000000504317     
26.895000457764     1.018987059593     0.000000481621     
27.000000000000     1.013705968857     0.000000460078     
27.104999542236     1.008424043655     0.000000439306     
27.209999084473     1.003142952919     0.000000420456     
27.315000534058     0.997861027718     0.000000403530     
27.420000076294     0.992579996586     0.000000386604     
27.524999618530     0.987299025059     0.000000370448     
27.629999160767     0.982016980648     0.000000356599     
27.735000610352     0.976736009121     0.000000343520     
27.840000152588     0.971454024315     0.000000330441     
27.889999389648     0.962377011776     0.000000311366     
27.995000839233     0.957095026970     0.000000301816     
28.100000381470     0.951813995838     0.000000291719     
28.204999923706     0.946533024311     0.000000281201     
28.309999465942     0.941250979900     0.000000272913     
28.415000915527     0.936134994030     0.000000265172     
28.520000457764     0.930688023567     0.000000256422     
28.625000000000     0.925571978092     0.000000248344     
28.729999542236     0.920289993286     0.000000241991     
28.834999084473     0.915009021759     0.000000235134     
28.940000534058     0.909726977348     0.000000227771     
29.045000076294     0.904610991478     0.000000221713     
29.149999618530     0.899330019951     0.000000216202     
29.254999160767     0.893882989883     0.000000210186     
29.360000610352     0.888767004013     0.000000204548     
29.465000152588     0.883485019207     0.000000198953     
29.569999694824     0.878203988075     0.000000194283     
29.674999237061     0.872922003269     0.000000189655     
29.780000686646     0.867640972137     0.000000184480     
29.885000228882     0.862360000610     0.000000179348     
29.989999771118     0.857078015804     0.000000175730     
30.094999313354     0.851796984673     0.000000171649     
30.200000762939     0.846514999866     0.000000166348     
30.305000305176     0.841399013996     0.000000162814     
30.409999847412     0.836117029190     0.000000159659     
30.514999389648     0.830671012402     0.000000155199     
30.620000839233     0.825555026531     0.000000150866     
30.725000381470     0.820272982121     0.000000148089     
30.829999923706     0.814992010593     0.000000144766     
30.934999465942     0.809710025787     0.000000140559     
31.040000915527     0.804593980312     0.000000137277     
31.145000457764     0.799311995506     0.000000134080     
31.250000000000     0.793865978718     0.000000130924     
31.354999542236     0.788749992847     0.000000127643     
31.459999084473     0.783468008041     0.000000123983     
31.565000534058     0.778186976910     0.000000121206     
31.670000076294     0.772904992104     0.000000118640     
31.774999618530     0.767624020576     0.000000115316     
31.879999160767     0.762507021427     0.000000111572     
31.985000610352     0.757225990295     0.000000109637     
32.090000152588     0.751945018768     0.000000107028     
32.194999694824     0.746662974358     0.000000103073     
32.299999237061     0.741217017174     0.000000100381     
32.404998779297     0.736100018024     0.000000098572     
32.509998321533     0.730818986893     0.000000095417     
32.615001678467     0.725537002087     0.000000091925     
32.720001220703     0.720421016216     0.000000089863     
32.825000762939     0.714974999428     0.000000087718     
32.930000305176     0.709858000278     0.000000084268     
33.034999847412     0.704577028751     0.000000081575     
33.139999389648     0.699129998684     0.000000079009     
33.244998931885     0.694014012814     0.000000076569     
33.349998474121     0.688732028008     0.000000074003     
33.455001831055     0.683450996876     0.000000071352     
33.560001373291     0.678169012070     0.000000068744     
33.665000915527     0.672887980938     0.000000066935     
33.770000457764     0.667607009411     0.000000064789     
33.875000000000     0.662325024605     0.000000060708     
33.979999542236     0.657043993473     0.000000059025     
34.084999084473     0.651926994324     0.000000058142     
34.189998626709     0.646646022797     0.000000053977     
34.294998168945     0.641363978386     0.000000051032     
34.400001525879     0.636083006859     0.000000050653     
34.505001068115     0.630801975727     0.000000048087     
34.610000610352     0.625519990921     0.000000043754     
34.715000152588     0.620239019394     0.000000042492     
34.819999694824     0.614956974983     0.000000041566     
34.924999237061     0.609676003456     0.000000037569     
35.029998779297     0.604394018650     0.000000035382     
35.134998321533     0.599277973175     0.000000033615     
