
Cycle 1
Physical Cycle 1
Step 1

Time (s),          Potential (V),         Current (A)
0.104999996722     0.001818999997     -0.000000190596     
0.209999993443     0.007110000122     -0.000000118170     
0.314999997616     0.012400999665     -0.000000072426     
0.419999986887     0.017526999116     -0.000000030495     
0.449999988079     0.027613999322     -0.000000037238     
0.555000007153     0.032905001193     0.000000000768     
0.660000026226     0.038196001202     0.000000037622     
0.764999985695     0.043487001210     0.000000076013     
0.795000016689     0.053408000618     0.000000137399     
0.899999976158     0.058699000627     0.000000176553     
1.004999995232     0.063824996352     0.000000216044     
1.110000014305     0.069117002189     0.000000257591     
1.215000033379     0.074408002198     0.000000299348     
1.320000052452     0.079534001648     0.000000341356     
1.424999952316     0.084825001657     0.000000384792     
1.529999971390     0.090116001666     0.000000430242     
1.634999990463     0.095242001116     0.000000476405     
1.740000009537     0.100533001125     0.000000523282     
1.845000028610     0.105824001133     0.000000571333     
1.950000047684     0.110950000584     0.000000619049     
2.055000066757     0.116241000593     0.000000666220     
2.160000085831     0.121367000043     0.000000715782     
2.265000104904     0.126657992601     0.000000766940     
2.369999885559     0.131950005889     0.000000816754     
2.474999904633     0.137241005898     0.000000864890     
2.579999923706     0.142367005348     0.000000914620     
2.684999942780     0.147658005357     0.000000965232     
2.789999961853     0.152949005365     0.000001015172     
2.890000104904     0.159894004464     0.000001103718     
2.994999885559     0.165185004473     0.000001147867     
3.099999904633     0.170476004481     0.000001196623     
3.204999923706     0.175768002868     0.000001246914     
3.309999942780     0.181059002876     0.000001296437     
3.414999961853     0.186350002885     0.000001344809     
3.519999980927     0.191476002336     0.000001393948     
3.625000000000     0.196932002902     0.000001441168     
3.730000019073     0.202058002353     0.000001486852     
3.835000038147     0.207350000739     0.000001534072     
3.940000057220     0.212641000748     0.000001580525     
4.045000076294     0.217932000756     0.000001623905     
4.150000095367     0.223223000765     0.000001665751     
4.255000114441     0.228349000216     0.000001707980     
4.360000133514     0.233640000224     0.000001750593     
4.465000152588     0.238931000233     0.000001790903     
4.570000171661     0.244056999683     0.000001828909     
4.675000190735     0.249348998070     0.000001867683     
4.780000209808     0.254640012980     0.000001905306     
4.885000228882     0.259930998087     0.000001940625     
4.989999771118     0.265222012997     0.000001976327     
5.094999790192     0.270512998104     0.000002011646     
5.199999809265     0.275804996490     0.000002046198     
5.304999828339     0.281096011400     0.000002079981     
5.409999847412     0.286386996508     0.000002113764     
5.514999866486     0.291512995958     0.000002146012     
5.619999885559     0.296804010868     0.000002180563     
5.724999904633     0.302094995975     0.000002213963     
5.829999923706     0.307386994362     0.000002244291     
5.934999942780     0.312512010336     0.000002274619     
6.039999961853     0.317804008722     0.000002306867     
6.144999980927     0.323094993830     0.000002338731     
6.250000000000     0.328386008739     0.000002369443     
6.355000019073     0.333676993847     0.000002399771     
6.460000038147     0.338968992233     0.000002429716     
6.565000057220     0.344094008207     0.000002458508     
6.670000076294     0.349386006594     0.000002487301     
6.775000095367     0.354676991701     0.000002517629     
6.880000114441     0.359968006611     0.000002545654     
6.985000133514     0.365258991718     0.000002571759     
7.090000152588     0.370550006628     0.000002597097     
7.195000171661     0.375676006079     0.000002623586     
7.300000190735     0.380968004465     0.000002651227     
7.405000209808     0.386258989573     0.000002678100     
7.510000228882     0.391550004482     0.000002703822     
7.614999771118     0.396840989590     0.000002728392     
7.719999790192     0.401966989040     0.000002753729     
7.824999809265     0.407424002886     0.000002780986     
7.929999828339     0.412548989058     0.000002806324     
8.034999847412     0.417840987444     0.000002830509     
8.140000343323     0.423132002354     0.000002855463     
8.244999885559     0.428422987461     0.000002881952     
8.350000381470     0.433714002371     0.000002906522     
8.454999923706     0.439006000757     0.000002933395     
8.560000419617     0.444130986929     0.000002959501     
8.664999961853     0.449422985315     0.000002983302     
8.770000457764     0.454714000225     0.000003007104     
8.875000000000     0.460004985332     0.000003036281     
8.979999542236     0.465296000242     0.000003062770     
9.085000038147     0.470587998629     0.000003088108     
9.189999580383     0.475713014603     0.000003112677     
9.295000076294     0.481169998646     0.000003138399     
9.399999618530     0.486295998096     0.000003162585     
9.505000114441     0.491587013006     0.000003189458     
9.609999656677     0.496877998114     0.000003215563     
9.715000152588     0.502004027367     0.000003240901     
9.819999694824     0.507295012474     0.000003266622     
9.925000190735     0.512587010860     0.000003293495     
10.029999732971     0.517877995968     0.000003320752     
10.135000228882     0.523168981075     0.000003347625     
10.239999771118     0.528460025787     0.000003375650     
10.345000267029     0.533751010895     0.000003403675     
10.449999809265     0.538877010345     0.000003429397     
10.555000305176     0.544167995453     0.000003455886     
10.659999847412     0.549459993839     0.000003485062     
10.765000343323     0.554750978947     0.000003513471     
10.869999885559     0.560042023659     0.000003539193     
10.975000381470     0.565333008766     0.000003567217     
11.079999923706     0.570459008217     0.000003595242     
11.185000419617     0.575749993324     0.000003623651     
11.289999961853     0.581041991711     0.000003652060     
11.395000457764     0.586332976818     0.000003680852     
11.500000000000     0.591624021530     0.000003708109     
11.604999542236     0.596915006638     0.000003736134     
11.710000038147     0.602041006088     0.000003764927     
11.814999580383     0.607331991196     0.000003794871     
11.920000076294     0.612623989582     0.000003822512     
12.024999618530     0.617914974689     0.000003851305     
12.130000114441     0.623206019402     0.000003879330     
12.234999656677     0.628332018852     0.000003906971     
12.340000152588     0.633623003960     0.000003935379     
12.444999694824     0.638913989067     0.000003966092     
12.550000190735     0.644205987453     0.000003992965     
12.654999732971     0.649496972561     0.000004019454     
12.760000228882     0.654788017273     0.000004047095     
12.864999771118     0.660079002380     0.000004077423     
12.970000267029     0.665205001831     0.000004105064     
13.074999809265     0.670495986938     0.000004137312     
13.180000305176     0.675786972046     0.000004165721     
13.284999847412     0.681078970432     0.000004195281     
13.390000343323     0.686370015144     0.000004222538     
13.494999885559     0.691496014595     0.000004253634     
13.600000381470     0.696951985359     0.000004283579     
13.704999923706     0.702243983746     0.000004313139     
13.810000419617     0.707535028458     0.000004341548     
13.914999961853     0.712661027908     0.000004371492     
14.020000457764     0.717952013016     0.000004401820     
14.125000000000     0.723242998123     0.000004433684     
14.229999542236     0.728533983231     0.000004464780     
14.335000038147     0.733825981617     0.000004494341     
14.439999580383     0.738951027393     0.000004523901     
14.545000076294     0.744243025780     0.000004556533     
14.649999618530     0.749534010887     0.000004588397     
14.755000114441     0.754824995995     0.000004619109     
14.859999656677     0.760115981102     0.000004650589     
14.965000152588     0.765407025814     0.000004683220     
15.069999694824     0.770533025265     0.000004713933     
15.175000190735     0.775825023651     0.000004746180     
15.279999732971     0.781116008759     0.000004780348     
15.385000228882     0.786406993866     0.000004814515     
15.489999771118     0.791697978973     0.000004845611     
15.595000267029     0.796989023685     0.000004879011     
15.699999809265     0.802281022072     0.000004913178     
15.805000305176     0.807406008244     0.000004948113     
15.909999847412     0.812698006630     0.000004983432     
16.014999389648     0.817988991737     0.000005016831     
16.120000839233     0.823279976845     0.000005050231     
16.225000381470     0.828571021557     0.000005085934     
16.329999923706     0.833863019943     0.000005122020     
16.434999465942     0.838988006115     0.000005158107     
16.540000915527     0.844280004501     0.000005193042     
16.645000457764     0.849570989609     0.000005229897     
16.750000000000     0.854861974716     0.000005265984     
16.854999542236     0.859987974167     0.000005302454     
16.959999084473     0.865279018879     0.000005340461     
17.065000534058     0.870570003986     0.000005379619     
17.170000076294     0.875862002373     0.000005416089     
17.274999618530     0.880986988544     0.000005452560     
17.379999160767     0.886443972588     0.000005491334     
17.485000610352     0.891569972038     0.000005531260     
17.590000152588     0.896861016750     0.000005570418     
17.694999694824     0.902152001858     0.000005609960     
17.799999237061     0.907444000244     0.000005648350     
17.905000686646     0.912734985352     0.000005687124     
18.010000228882     0.918025970459     0.000005725898     
18.114999771118     0.923152029514     0.000005766208     
18.219999313354     0.928443014622     0.000005806902     
18.325000762939     0.933733999729     0.000005847979     
18.430000305176     0.939024984837     0.000005887137     
18.534999847412     0.944150984287     0.000005927063     
18.639999389648     0.949442982674     0.000005967373     
18.745000839233     0.954899013042     0.000006009218     
18.850000381470     0.960025012493     0.000006049912     
18.954999923706     0.965315997601     0.000006088686     
19.059999465942     0.970606982708     0.000006127844     
19.165000915527     0.975898981094     0.000006170841     
19.270000457764     0.981024980545     0.000006211918     
19.375000000000     0.986316025257     0.000006251844     
19.479999542236     0.991607010365     0.000006292922     
19.584999084473     0.996897995472     0.000006333615     
19.690000534058     1.002189040184     0.000006373925     
19.795000076294     1.007480978966     0.000006415002     
19.899999618530     1.012606024742     0.000006456848     
20.004999160767     1.018062949181     0.000006498693     
20.110000610352     1.023188948631     0.000006538619     
20.215000152588     1.028480052948     0.000006580080     
20.319999694824     1.033771038055     0.000006622693     
20.424999237061     1.038897037506     0.000006665307     
20.530000686646     1.044353961945     0.000006707152     
20.635000228882     1.049644947052     0.000006748997     
20.739999771118     1.054770946503     0.000006790842     
20.844999313354     1.060062050819     0.000006834991     
20.950000762939     1.065353035927     0.000006881827     
21.055000305176     1.070644021034     0.000006927128     
21.159999847412     1.075770020485     0.000006971660     
21.264999389648     1.081226944923     0.000007019648     
21.370000839233     1.086352944374     0.000007068404     
21.475000381470     1.091644048691     0.000007116775     
21.579999923706     1.096935033798     0.000007167450     
21.684999465942     1.102226018906     0.000007221964     
21.790000915527     1.107352018356     0.000007274175     
21.895000457764     1.112643957138     0.000007328689     
22.000000000000     1.117934942245     0.000007387810     
22.104999542236     1.123226046562     0.000007450386     
22.209999084473     1.128517031670     0.000007512194     
22.315000534058     1.133643031120     0.000007576690     
22.420000076294     1.138934016228     0.000007644257     
22.524999618530     1.144225001335     0.000007714511     
22.629999160767     1.149517059326     0.000007788988     
22.735000610352     1.154808044434     0.000007868455     
22.840000152588     1.160099029541     0.000007949459     
22.944999694824     1.165225028992     0.000008031998     
23.049999237061     1.170516014099     0.000008120295     
23.155000686646     1.175806999207     0.000008212815     
23.260000228882     1.181099057198     0.000008308791     
23.364999771118     1.186390042305     0.000008410909     
23.469999313354     1.191516041756     0.000008517250     
23.575000762939     1.196642041206     0.000008615529     
23.680000305176     1.195484042168     0.000008239305     
23.784999847412     1.190358042717     0.000007706449     
23.889999389648     1.185067057610     0.000007224268     
23.995000839233     1.179941058159     0.000006783932     
24.100000381470     1.174484968185     0.000006380835     
24.204999923706     1.169358968735     0.000006007298     
24.309999465942     1.164232969284     0.000005660251     
24.415000915527     1.158941984177     0.000005339693     
24.520000457764     1.153650045395     0.000005042169     
24.625000000000     1.148358941078     0.000004763456     
24.729999542236     1.143067955971     0.000004501635     
24.834999084473     1.137941956520     0.000004259393     
24.940000534058     1.132650971413     0.000004033274     
25.045000076294     1.127359986305     0.000003822128     
25.149999618530     1.122068047523     0.000003623267     
25.254999160767     1.116776943207     0.000003437075     
25.360000610352     1.111650943756     0.000003261631     
25.465000152588     1.106359958649     0.000003098089     
25.569999694824     1.101068973541     0.000002945680     
25.674999237061     1.095777988434     0.000002801717     
25.780000686646     1.090651988983     0.000002665432     
25.885000228882     1.085361003876     0.000002537592     
25.989999771118     1.080068945885     0.000002416279     
26.094999313354     1.074777960777     0.000002302644     
26.200000762939     1.069486975670     0.000002196303     
26.305000305176     1.064195990562     0.000002096489     
26.409999847412     1.059069991112     0.000001999362     
26.514999389648     1.053779006004     0.000001908377     
26.620000839233     1.048488020897     0.000001823918     
26.725000381470     1.043362021446     0.000001744451     
26.829999923706     1.038069963455     0.000001666902     
26.934999465942     1.032778978348     0.000001595113     
27.040000915527     1.027487993240     0.000001526778     
27.145000457764     1.022197008133     0.000001460747     
27.250000000000     1.016906023026     0.000001398939     
27.354999542236     1.011780023575     0.000001342505     
27.459999084473     1.006487965584     0.000001287607     
27.565000534058     1.001196980476     0.000001234629     
27.670000076294     0.995905995369     0.000001183954     
27.774999618530     0.990615010262     0.000001136734     
27.879999160767     0.985324025154     0.000001091433     
27.985000610352     0.980032026768     0.000001049588     
28.090000152588     0.974906980991     0.000001009278     
28.194999694824     0.969614982605     0.000000969736     
28.299999237061     0.964323997498     0.000000931346     
28.405000686646     0.959197998047     0.000000897179     
28.510000228882     0.953742027283     0.000000864163     
28.614999771118     0.948616027832     0.000000833067     
28.719999313354     0.943324983120     0.000000802355     
28.825000762939     0.938032984734     0.000000773563     
28.930000305176     0.932741999626     0.000000744002     
29.034999847412     0.927451014519     0.000000718281     
29.139999389648     0.922325015068     0.000000694479     
29.245000839233     0.917033970356     0.000000671445     
29.350000381470     0.911742985249     0.000000646107     
29.454999923706     0.906450986862     0.000000624609     
29.559999465942     0.901160001755     0.000000603878     
29.665000915527     0.895869016647     0.000000583147     
29.770000457764     0.890743017197     0.000000564336     
29.875000000000     0.885451972485     0.000000546676     
29.979999542236     0.880160987377     0.000000527097     
30.084999084473     0.874868988991     0.000000509438     
30.190000534058     0.869578003883     0.000000492930     
30.295000076294     0.864287018776     0.000000478342     
30.399999618530     0.858995974064     0.000000461834     
30.504999160767     0.853869974613     0.000000446862     
30.610000610352     0.848578989506     0.000000431122     
30.715000152588     0.843122005463     0.000000415766     
30.819999694824     0.837996006012     0.000000401945     
30.924999237061     0.832705020905     0.000000389661     
31.030000686646     0.827413976192     0.000000375456     
31.135000228882     0.822287976742     0.000000361252     
31.239999771118     0.816996991634     0.000000347431     
31.344999313354     0.811706006527     0.000000335530     
31.450000762939     0.806414008141     0.000000321710     
31.559999465942     0.800296008587     0.000000296746     
31.665000915527     0.795005023479     0.000000286926     
31.770000457764     0.789713978767     0.000000274504     
31.875000000000     0.784587979317     0.000000260403     
31.979999542236     0.779296994209     0.000000247981     
32.084999084473     0.773840010166     0.000000237153     
32.189998626709     0.768714010715     0.000000225780     
32.294998168945     0.763423025608     0.000000211889     
32.400001525879     0.758131980896     0.000000199509     
32.505001068115     0.752840995789     0.000000187884     
32.610000610352     0.747714996338     0.000000175169     
32.715000152588     0.742424011230     0.000000162159     
32.819999694824     0.737133026123     0.000000151290     
32.924999237061     0.731841027737     0.000000137734     
33.029998779297     0.726715028286     0.000000124389     
33.134998321533     0.721423983574     0.000000111337     
33.240001678467     0.716132998466     0.000000099881     
33.345001220703     0.710842013359     0.000000086997     
33.450000762939     0.705551028252     0.000000075036     
33.555000305176     0.700425028801     0.000000060936     
33.659999847412     0.695133984089     0.000000047632     
33.764999389648     0.689841985703     0.000000033070     
33.869998931885     0.684551000595     0.000000021697     
33.974998474121     0.679260015488     0.000000007974     
34.080001831055     0.674134016037     -0.000000006379     
34.185001373291     0.668842971325     -0.000000021403     
34.290000915527     0.663551986217     -0.000000034664     
34.395000457764     0.658259987831     -0.000000049646     
34.500000000000     0.652969002724     -0.000000063202     
34.604999542236     0.647678017616     -0.000000076043     
34.709999084473     0.642552018166     -0.000000090354     
34.814998626709     0.637260973454     -0.000000107015     
34.919998168945     0.631969988346     -0.000000120738     
35.025001525879     0.626677989960     -0.000000133286     
35.130001068115     0.621387004852     -0.000000146589     
35.235000610352     0.616096019745     -0.000000159767     
35.340000152588     0.610970020294     -0.000000172273     
