
Cycle 1
Physical Cycle 1
Step 1

Time (s),          Potential (V),         Current (A)
0.104999996722     0.001983999973     -0.000000240151     
0.209999993443     0.007110000122     -0.000000224903     
0.314999997616     0.012400999665     -0.000000209656     
0.419999986887     0.017692999914     -0.000000194408     
0.449999988079     0.027778999880     -0.000000248001     
0.555000007153     0.032905001193     -0.000000234180     
0.660000026226     0.038196001202     -0.000000221128     
0.764999985695     0.043487001210     -0.000000208843     
0.795000016689     0.053739000112     -0.000000194179     
0.899999976158     0.058864999563     -0.000000182807     
1.004999995232     0.064156003296     -0.000000172399     
1.110000014305     0.069447003305     -0.000000162453     
1.215000033379     0.074738003314     -0.000000152297     
1.320000052452     0.079864002764     -0.000000143106     
1.424999952316     0.085321001709     -0.000000134545     
1.529999971390     0.090447001159     -0.000000125606     
1.634999990463     0.095738001168     -0.000000117129     
1.740000009537     0.101029001176     -0.000000109785     
1.845000028610     0.106320001185     -0.000000102105     
1.950000047684     0.111446000636     -0.000000094425     
2.055000066757     0.116737000644     -0.000000087668     
2.160000085831     0.122028999031     -0.000000081205     
2.265000104904     0.127320006490     -0.000000074281     
2.369999885559     0.132611006498     -0.000000067986     
2.474999904633     0.137902006507     -0.000000062404     
2.579999923706     0.143028005958     -0.000000056319     
2.684999942780     0.148319005966     -0.000000050318     
2.789999961853     0.153611004353     -0.000000045282     
2.894999980927     0.158902004361     -0.000000040162     
3.000000000000     0.164193004370     -0.000000034580     
3.105000019073     0.169319003820     -0.000000029754     
3.210000038147     0.174610003829     -0.000000025348     
3.315000057220     0.179901003838     -0.000000020438     
3.369999885559     0.188830003142     -0.000000013973     
3.474999904633     0.193956002593     -0.000000009056     
3.579999923706     0.199247002602     -0.000000005035     
3.684999942780     0.204539000988     -0.000000001228     
3.789999961853     0.209664002061     0.000000003265     
3.894999980927     0.215121001005     0.000000007477     
4.000000000000     0.220247000456     0.000000010879     
4.105000019073     0.225372999907     0.000000014911     
4.210000038147     0.230663999915     0.000000019485     
4.315000057220     0.235954999924     0.000000023136     
4.420000076294     0.241080999374     0.000000026855     
4.525000095367     0.246371999383     0.000000031280     
4.630000114441     0.251662999392     0.000000035270     
4.735000133514     0.256788998842     0.000000038730     
4.840000152588     0.262080997229     0.000000043037     
4.945000171661     0.267372012138     0.000000048015     
5.050000190735     0.272498011589     0.000000051848     
5.155000209808     0.277788996696     0.000000056231     
5.260000228882     0.283080011606     0.000000061202     
5.364999771118     0.288206011057     0.000000065512     
5.469999790192     0.293496996164     0.000000070059     
5.574999809265     0.298788011074     0.000000075354     
5.679999828339     0.304080009460     0.000000080912     
5.784999847412     0.309204995632     0.000000085783     
5.869999885559     0.316976994276     0.000000095978     
5.974999904633     0.322268009186     0.000000102273     
6.079999923706     0.327558994293     0.000000108148     
6.184999942780     0.332850992680     0.000000114947     
6.289999961853     0.337976008654     0.000000122668     
6.394999980927     0.343268007040     0.000000130013     
6.500000000000     0.348558992147     0.000000137818     
6.605000019073     0.353850007057     0.000000146715     
6.710000038147     0.359140992165     0.000000155696     
6.815000057220     0.364432990551     0.000000164509     
6.920000076294     0.369558006525     0.000000174287     
7.025000095367     0.374850004911     0.000000184569     
7.130000114441     0.380140990019     0.000000194431     
7.235000133514     0.385432004929     0.000000204713     
7.340000152588     0.390558004379     0.000000215792     
7.445000171661     0.395848989487     0.000000226284     
7.550000190735     0.401140004396     0.000000236692     
7.655000209808     0.406432002783     0.000000248023     
7.760000228882     0.411722987890     0.000000258976     
7.864999771118     0.417014002800     0.000000269132     
7.969999790192     0.422140002251     0.000000279875     
8.074999809265     0.427430987358     0.000000290954     
8.180000305176     0.432722002268     0.000000300984     
8.284999847412     0.438012987375     0.000000311056     
8.390000343323     0.443304985762     0.000000321506     
8.494999885559     0.448596000671     0.000000331410     
8.600000381470     0.453722000122     0.000000340391     
8.704999923706     0.459012985229     0.000000350127     
8.810000419617     0.464304000139     0.000000359612     
8.914999961853     0.469594985247     0.000000368425     
9.020000457764     0.474887013435     0.000000376986     
9.125000000000     0.480013012886     0.000000386135     
9.229999542236     0.485303997993     0.000000394276     
9.335000038147     0.490595012903     0.000000402460     
9.439999580383     0.495885998011     0.000000411063     
9.545000076294     0.501012027264     0.000000419204     
9.649999618530     0.506303012371     0.000000426423     
9.755000114441     0.511593997478     0.000000434648     
9.859999656677     0.516885995865     0.000000442664     
9.965000152588     0.522176980972     0.000000449966     
10.069999694824     0.527468025684     0.000000457310     
10.175000190735     0.532759010792     0.000000465326     
10.279999732971     0.537885010242     0.000000472544     
10.385000228882     0.543175995350     0.000000479343     
10.489999771118     0.548467993736     0.000000486855     
10.595000267029     0.553592979908     0.000000494492     
10.699999809265     0.558884978294     0.000000501039     
10.805000305176     0.564341008663     0.000000507880     
10.909999847412     0.569467008114     0.000000515308     
11.015000343323     0.574757993221     0.000000521897     
11.119999885559     0.580049991608     0.000000528359     
11.225000381470     0.585340976715     0.000000535368     
11.329999923706     0.590466976166     0.000000542167     
11.435000419617     0.595758020878     0.000000548252     
11.539999961853     0.601049005985     0.000000554882     
11.645000457764     0.606339991093     0.000000561723     
11.750000000000     0.611630976200     0.000000567808     
11.854999542236     0.616756975651     0.000000574145     
11.960000038147     0.622048974037     0.000000580734     
12.064999580383     0.627340018749     0.000000586777     
12.170000076294     0.632631003857     0.000000592359     
12.274999618530     0.637921988964     0.000000599241     
12.380000114441     0.643212974072     0.000000605494     
12.484999656677     0.648504972458     0.000000611034     
12.590000152588     0.653630971909     0.000000616993     
12.694999694824     0.658922016621     0.000000623414     
12.800000190735     0.664213001728     0.000000628870     
12.904999732971     0.669503986835     0.000000634997     
13.010000228882     0.674794971943     0.000000641334     
13.114999771118     0.680086970329     0.000000647251     
13.220000267029     0.685212016106     0.000000652497     
13.324999809265     0.690669000149     0.000000658498     
13.430000305176     0.695794999599     0.000000664667     
13.534999847412     0.701250970364     0.000000670249     
13.640000343323     0.706377029419     0.000000675746     
13.744999885559     0.711669027805     0.000000681831     
13.850000381470     0.716794013977     0.000000687371     
13.954999923706     0.722250998020     0.000000692952     
14.060000419617     0.727376997471     0.000000699122     
14.164999961853     0.732667982578     0.000000704955     
14.270000457764     0.737959027290     0.000000710201     
14.375000000000     0.743250012398     0.000000716202     
14.479999542236     0.748376011848     0.000000722287     
14.585000038147     0.753668010235     0.000000727575     
14.689999580383     0.758958995342     0.000000733240     
14.795000076294     0.764249980450     0.000000739703     
14.899999618530     0.769541025162     0.000000745285     
15.005000114441     0.774832010269     0.000000750447     
15.109999656677     0.779958009720     0.000000756658     
15.215000152588     0.785414993763     0.000000762953     
15.319999694824     0.790540993214     0.000000768325     
15.425000190735     0.795831978321     0.000000774032     
15.529999732971     0.801123023033     0.000000780327     
15.635000228882     0.806249022484     0.000000786160     
15.739999771118     0.811540007591     0.000000791952     
15.845000267029     0.816830992699     0.000000798834     
15.949999809265     0.822122991085     0.000000805297     
16.055000305176     0.827413976192     0.000000811298     
16.159999847412     0.832705020905     0.000000818013     
16.264999389648     0.837996006012     0.000000825147     
16.370000839233     0.843122005463     0.000000831862     
16.475000381470     0.848412990570     0.000000839248     
16.579999923706     0.853704988956     0.000000847054     
16.684999465942     0.858995974064     0.000000854398     
16.790000915527     0.864121973515     0.000000861700     
16.895000457764     0.869413018227     0.000000870513     
17.000000000000     0.874704003334     0.000000879200     
17.104999542236     0.879994988441     0.000000887174     
17.209999084473     0.885286986828     0.000000895903     
17.315000534058     0.890411973000     0.000000905136     
17.420000076294     0.895703971386     0.000000913991     
17.524999618530     0.900995016098     0.000000922971     
17.629999160767     0.906286001205     0.000000933001     
17.735000610352     0.911576986313     0.000000942822     
17.840000152588     0.916868984699     0.000000951761     
17.944999694824     0.922160029411     0.000000961749     
18.049999237061     0.927286028862     0.000000972114     
18.155000686646     0.932577013969     0.000000982186     
18.260000228882     0.937867999077     0.000000992216     
18.364999771118     0.943158984184     0.000001003044     
18.469999313354     0.948284983635     0.000001012990     
18.575000762939     0.953576028347     0.000001023020     
18.680000305176     0.958868026733     0.000001033973     
18.729999542236     0.968457996845     0.000001065712     
18.834999084473     0.973748981953     0.000001076077     
18.940000534058     0.979040026665     0.000001086059     
19.045000076294     0.984166026115     0.000001096424     
19.149999618530     0.989623010159     0.000001107173     
19.254999160767     0.994749009609     0.000001117155     
19.360000610352     1.000040054321     0.000001127520     
19.465000152588     1.005331039429     0.000001138269     
19.569999694824     1.010622024536     0.000001148251     
19.674999237061     1.015748023987     0.000001158616     
19.780000686646     1.021204948425     0.000001169749     
19.885000228882     1.026496052742     0.000001180499     
19.989999771118     1.031622052193     0.000001190480     
20.094999313354     1.036913037300     0.000001200845     
20.200000762939     1.042369961739     0.000001211979     
20.305000305176     1.047495007515     0.000001222728     
20.409999847412     1.052621006966     0.000001233477     
20.514999389648     1.057911992073     0.000001244610     
20.620000839233     1.063204050064     0.000001255743     
20.725000381470     1.068660020828     0.000001266109     
20.829999923706     1.073786020279     0.000001278394     
20.934999465942     1.079077005386     0.000001290679     
21.040000915527     1.084368944168     0.000001302196     
21.145000457764     1.089493989944     0.000001314480     
21.250000000000     1.094786047935     0.000001327149     
21.354999542236     1.100077033043     0.000001339818     
21.459999084473     1.105368018150     0.000001353638     
21.565000534058     1.110659003258     0.000001367843     
21.670000076294     1.115950942039     0.000001382815     
21.774999618530     1.121242046356     0.000001397019     
21.879999160767     1.126533031464     0.000001413911     
21.985000610352     1.131659030914     0.000001430419     
22.090000152588     1.136950016022     0.000001448078     
22.194999694824     1.142241001129     0.000001466122     
22.299999237061     1.147531986237     0.000001486469     
22.405000686646     1.152824044228     0.000001506048     
22.510000228882     1.158115029335     0.000001527162     
22.614999771118     1.163241028786     0.000001550580     
22.719999313354     1.168532013893     0.000001575150     
22.825000762939     1.173822999001     0.000001599720     
22.930000305176     1.179113984108     0.000001625441     
23.034999847412     1.184239983559     0.000001653850     
23.139999389648     1.189530968666     0.000001682642     
23.245000839233     1.194823026657     0.000001712587     
23.350000381470     1.197963953018     0.000001702605     
23.454999923706     1.193335056305     0.000001584364     
23.559999465942     1.188042998314     0.000001476103     
23.665000915527     1.182752013206     0.000001382047     
23.770000457764     1.177626013756     0.000001298357     
23.875000000000     1.172335028648     0.000001223112     
23.979999542236     1.167044043541     0.000001155161     
24.084999084473     1.161753058434     0.000001094505     
24.190000534058     1.156461000443     0.000001038839     
24.295000076294     1.151170015335     0.000000988164     
24.399999618530     1.146044015884     0.000000942479     
24.504999160767     1.140753030777     0.000000901018     
24.610000610352     1.135462045670     0.000000861860     
24.715000152588     1.130170941353     0.000000826541     
24.819999694824     1.124879002571     0.000000794293     
24.924999237061     1.119588017464     0.000000763965     
25.030000686646     1.114462018013     0.000000736324     
25.135000228882     1.109171032906     0.000000710987     
25.239999771118     1.103880047798     0.000000687185     
25.344999313354     1.098588943481     0.000000664534     
25.450000762939     1.093297958374     0.000000644188     
25.555000305176     1.088006019592     0.000000625376     
25.659999847412     1.082715034485     0.000000607333     
25.764999389648     1.077589035034     0.000000590057     
25.870000839233     1.072298049927     0.000000574701     
25.975000381470     1.067006945610     0.000000559345     
26.079999923706     1.061715960503     0.000000545141     
26.184999465942     1.056589961052     0.000000532472     
26.290000915527     1.051133036613     0.000000520187     
26.395000457764     1.046007037163     0.000000507518     
26.500000000000     1.040716052055     0.000000496385     
26.604999542236     1.035424947739     0.000000486020     
26.709999084473     1.030133962631     0.000000475655     
26.815000534058     1.024842023849     0.000000466057     
26.920000076294     1.019551038742     0.000000456843     
27.024999618530     1.014260053635     0.000000447630     
27.129999160767     1.008968949318     0.000000438800     
27.235000610352     1.003842949867     0.000000431122     
27.340000152588     0.998552024364     0.000000423444     
27.444999694824     0.993260025978     0.000000415382     
27.549999237061     0.987968981266     0.000000408088     
27.655000686646     0.982842981815     0.000000401178     
27.760000228882     0.977551996708     0.000000393883     
27.864999771118     0.972261011600     0.000000386973     
27.969999313354     0.966970026493     0.000000380831     
28.075000762939     0.961678981781     0.000000374688     
28.180000305176     0.956386983395     0.000000367394     
28.284999847412     0.951095998287     0.000000360868     
28.389999389648     0.945969998837     0.000000355877     
28.454999923706     0.937372028828     0.000000337328     
28.559999465942     0.932246029377     0.000000331452     
28.665000915527     0.926954984665     0.000000326248     
28.770000457764     0.921663999557     0.000000320373     
28.875000000000     0.916372001171     0.000000314414     
28.979999542236     0.911247014999     0.000000309630     
29.084999084473     0.905955016613     0.000000304468     
29.190000534058     0.900663971901     0.000000298424     
29.295000076294     0.895372986794     0.000000293347     
29.399999618530     0.890082001686     0.000000288101     
29.504999160767     0.884791016579     0.000000282561     
29.610000610352     0.879499018192     0.000000277231     
29.715000152588     0.874373018742     0.000000272363     
29.819999694824     0.869081974030     0.000000266782     
29.924999237061     0.863790988922     0.000000261326     
30.030000686646     0.858500003815     0.000000256332     
30.135000228882     0.853209018707     0.000000251212     
30.239999771118     0.848083019257     0.000000245295     
30.344999313354     0.842791020870     0.000000239923     
30.450000762939     0.837499976158     0.000000235181     
30.555000305176     0.832208991051     0.000000229557     
30.659999847412     0.826918005943     0.000000223892     
30.764999389648     0.821792006493     0.000000219234     
30.870000839233     0.816335022449     0.000000214114     
30.975000381470     0.811209976673     0.000000208574     
31.079999923706     0.805917978287     0.000000203622     
31.184999465942     0.800626993179     0.000000199173     
31.290000915527     0.795336008072     0.000000194389     
31.395000457764     0.790045022964     0.000000189983     
31.500000000000     0.784919023514     0.000000186080     
31.604999542236     0.779627978802     0.000000181799     
31.709999084473     0.774335980415     0.000000177267     
31.815000534058     0.769044995308     0.000000173910     
31.920000076294     0.763754010201     0.000000170258     
32.025001525879     0.758628010750     0.000000165936     
32.130001068115     0.753171980381     0.000000162327     
32.235000610352     0.748045980930     0.000000158844     
32.340000152588     0.742753982544     0.000000154185     
32.444999694824     0.737462997437     0.000000150156     
32.549999237061     0.732172012329     0.000000146631     
32.654998779297     0.726881027222     0.000000142393     
32.759998321533     0.721755027771     0.000000137315     
32.865001678467     0.716463983059     0.000000133412     
32.970001220703     0.711172997952     0.000000129425     
33.075000762939     0.705880999565     0.000000124767     
33.180000305176     0.700590014458     0.000000120150     
33.284999847412     0.695299029350     0.000000116751     
33.389999389648     0.690172970295     0.000000112345     
33.494998931885     0.684881985188     0.000000108526     
33.599998474121     0.679591000080     0.000000105798     
33.705001831055     0.674299001694     0.000000103574     
33.810001373291     0.669008016586     0.000000101181     
33.915000915527     0.663716971874     0.000000100426     
34.020000457764     0.658425986767     0.000000100762     
34.125000000000     0.653133988380     0.000000101181     
34.229999542236     0.647843003273     0.000000102902     
34.334999084473     0.642717003822     0.000000106050     
34.439998626709     0.637426018715     0.000000108903     
34.544998168945     0.632134974003     0.000000111505     
34.650001525879     0.626843988895     0.000000115072     
34.755001068115     0.621553003788     0.000000118346     
34.860000610352     0.616261005402     0.000000119941     
34.965000152588     0.611135005951     0.000000121577     
35.069999694824     0.605844020844     0.000000122752     
35.174999237061     0.600552976131     0.000000122291     
