
Cycle 1
Physical Cycle 1
Step 1

Time (s),          Potential (V),         Current (A)
0.104999996722     0.002318999963     -0.000000137567     
0.209999993443     0.007453999948     -0.000000126103     
0.314999997616     0.012755000032     -0.000000114639     
0.419999986887     0.018055999652     -0.000000103175     
0.449999988079     0.028161000460     -0.000000104076     
0.555000007153     0.033461999148     -0.000000095982     
0.660000026226     0.038598001003     -0.000000087887     
0.764999985695     0.043898999691     -0.000000080177     
0.795000016689     0.054003998637     -0.000000069364     
0.899999976158     0.059305001050     -0.000000063776     
1.004999995232     0.064439997077     -0.000000057684     
1.110000014305     0.069741003215     -0.000000052012     
1.215000033379     0.075042001903     -0.000000047097     
1.320000052452     0.080343000591     -0.000000041761     
1.424999952316     0.085478000343     -0.000000036845     
1.529999971390     0.090778999031     -0.000000032896     
1.634999990463     0.096079997718     -0.000000028779     
1.740000009537     0.101380996406     -0.000000023905     
1.845000028610     0.106682002544     -0.000000019830     
1.904999971390     0.115295998752     -0.000000013568     
2.009999990463     0.120430998504     -0.000000009385     
2.115000009537     0.125732004642     -0.000000006295     
2.220000028610     0.131033003330     -0.000000003045     
2.325000047684     0.136169001460     0.000000000982     
2.430000066757     0.141470000148     0.000000004733     
2.535000085831     0.146604999900     0.000000008096     
2.640000104904     0.151905998588     0.000000012150     
2.744999885559     0.157206997275     0.000000015915     
2.849999904633     0.162341997027     0.000000019059     
2.954999923706     0.167642995715     0.000000022726     
3.059999942780     0.172778993845     0.000000027204     
3.164999961853     0.177913993597     0.000000031224     
3.269999980927     0.183381006122     0.000000034868     
3.375000000000     0.188516005874     0.000000039206     
3.480000019073     0.193817004561     0.000000043279     
3.585000038147     0.199118003249     0.000000047083     
3.690000057220     0.204253003001     0.000000051747     
3.795000076294     0.209554001689     0.000000056733     
3.900000095367     0.214855000377     0.000000060962     
4.005000114441     0.219990000129     0.000000065205     
4.110000133514     0.225290998816     0.000000070321     
4.215000152588     0.230426996946     0.000000075349     
4.320000171661     0.235727995634     0.000000080294     
4.425000190735     0.240862995386     0.000000086300     
4.534999847412     0.247489005327     0.000000094067     
4.639999866486     0.252790004015     0.000000099823     
4.744999885559     0.258091002703     0.000000105537     
4.849999904633     0.263226002455     0.000000112301     
4.954999923706     0.268361985683     0.000000119359     
5.059999942780     0.273827999830     0.000000125451     
5.164999961853     0.279128998518     0.000000131963     
5.269999980927     0.284265011549     0.000000139105     
5.375000000000     0.289566010237     0.000000146122     
5.480000019073     0.294867008924     0.000000152886     
5.585000038147     0.300168007612     0.000000160028     
5.690000057220     0.305303007364     0.000000167254     
5.795000076294     0.310604006052     0.000000173556     
5.900000095367     0.315905004740     0.000000180110     
6.005000114441     0.321206003428     0.000000187757     
6.110000133514     0.326341003180     0.000000194479     
6.215000152588     0.331642001867     0.000000200655     
6.320000171661     0.336943000555     0.000000207083     
6.425000190735     0.342078000307     0.000000213385     
6.530000209808     0.347378998995     0.000000219014     
6.635000228882     0.352679997683     0.000000225274     
6.739999771118     0.357980996370     0.000000231996     
6.844999790192     0.363281995058     0.000000236954     
6.949999809265     0.368418008089     0.000000242121     
7.054999828339     0.373719006777     0.000000247919     
7.159999847412     0.379020005465     0.000000253213     
7.264999866486     0.384321004152     0.000000257834     
7.369999885559     0.389456003904     0.000000263212     
7.474999904633     0.394921988249     0.000000268464     
7.579999923706     0.400058001280     0.000000272497     
7.684999942780     0.405358999968     0.000000276404     
7.789999961853     0.410659998655     0.000000281320     
7.894999980927     0.415794998407     0.000000286109     
8.000000000000     0.421095997095     0.000000290311     
8.104999542236     0.426396995783     0.000000295436     
8.210000038147     0.431697994471     0.000000300688     
8.314999580383     0.436832994223     0.000000310141     
8.420000076294     0.442133992910     0.000000339844     
8.524999618530     0.447434991598     0.000000355137     
8.630000114441     0.452735990286     0.000000367699     
8.734999656677     0.458036988974     0.000000371774     
8.840000152588     0.463171988726     0.000000380513     
8.944999694824     0.468472987413     0.000000384126     
9.050000190735     0.473773986101     0.000000383117     
9.154999732971     0.478909999132     0.000000384378     
9.260000228882     0.484210997820     0.000000386394     
9.364999771118     0.489511996508     0.000000389756     
9.470000267029     0.494812995195     0.000000394041     
9.574999809265     0.500114023685     0.000000395889     
9.680000305176     0.505249023438     0.000000399377     
9.784999847412     0.510550022125     0.000000403746     
9.890000343323     0.515851020813     0.000000408703     
9.994999885559     0.521152019501     0.000000411308     
10.100000381470     0.526287019253     0.000000413031     
10.204999923706     0.531588017941     0.000000415384     
10.310000419617     0.536889016628     0.000000419333     
10.414999961853     0.542190015316     0.000000421181     
10.520000457764     0.547325015068     0.000000422946     
10.625000000000     0.552626013756     0.000000425383     
10.729999542236     0.557927012444     0.000000428282     
10.835000038147     0.563228011131     0.000000430550     
10.939999580383     0.568529009819     0.000000436012     
11.045000076294     0.573830008507     0.000000441852     
11.149999618530     0.578966021538     0.000000444120     
11.255000114441     0.584267020226     0.000000446683     
11.359999656677     0.589568018913     0.000000452355     
11.465000152588     0.594869017601     0.000000455506     
11.569999694824     0.600004017353     0.000000460842     
11.675000190735     0.605305016041     0.000000463489     
11.779999732971     0.610771000385     0.000000467480     
11.885000228882     0.615907013416     0.000000470967     
11.989999771118     0.621042013168     0.000000475084     
12.095000267029     0.626343011856     0.000000482226     
12.199999809265     0.631644010544     0.000000485545     
12.305000305176     0.636945009232     0.000000488612     
12.409999847412     0.642080008984     0.000000493612     
12.515000343323     0.647381007671     0.000000498317     
12.619999885559     0.652682006359     0.000000501678     
12.725000381470     0.657983005047     0.000000505544     
12.829999923706     0.663284003735     0.000000512938     
12.935000419617     0.668585002422     0.000000519828     
13.039999961853     0.673886001110     0.000000525584     
13.145000457764     0.679021000862     0.000000531172     
13.250000000000     0.684321999550     0.000000535415     
13.354999542236     0.689458012581     0.000000540372     
13.460000038147     0.694923996925     0.000000547809     
13.564999580383     0.700060009956     0.000000555581     
13.670000076294     0.705361008644     0.000000561967     
13.774999618530     0.710496008396     0.000000568101     
13.880000114441     0.715797007084     0.000000574781     
13.984999656677     0.721098005772     0.000000580789     
14.090000152588     0.726399004459     0.000000586293     
14.194999694824     0.731700003147     0.000000595074     
14.300000190735     0.736835002899     0.000000602468     
14.404999732971     0.742136001587     0.000000608686     
14.510000228882     0.747437000275     0.000000613895     
14.614999771118     0.752572000027     0.000000619987     
14.720000267029     0.758038997650     0.000000627760     
14.824999809265     0.763339996338     0.000000635196     
14.930000305176     0.768474996090     0.000000649733     
15.034999847412     0.773775994778     0.000000658429     
15.140000343323     0.779076993465     0.000000663849     
15.244999885559     0.784213006496     0.000000669731     
15.350000381470     0.789514005184     0.000000678007     
15.454999923706     0.794815003872     0.000000686536     
15.560000419617     0.800116002560     0.000000694014     
15.664999961853     0.805251002312     0.000000701661     
15.770000457764     0.810552000999     0.000000708131     
15.875000000000     0.815852999687     0.000000715315     
15.979999542236     0.821153998375     0.000000726617     
16.084999084473     0.826288998127     0.000000739010     
16.190000534058     0.831589996815     0.000000745354     
16.295000076294     0.836890995502     0.000000754849     
16.399999618530     0.842191994190     0.000000765437     
16.504999160767     0.847326993942     0.000000776528     
16.610000610352     0.852627992630     0.000000786233     
16.715000152588     0.857928991318     0.000000795308     
16.819999694824     0.863229990005     0.000000805055     
16.924999237061     0.868366003036     0.000000814928     
17.030000686646     0.873667001724     0.000000824675     
17.135000228882     0.878968000412     0.000000837951     
17.239999771118     0.884268999100     0.000000849463     
17.344999313354     0.889403998852     0.000000866436     
17.450000762939     0.894704997540     0.000000880973     
17.555000305176     0.900005996227     0.000000886056     
17.659999847412     0.905306994915     0.000000893661     
17.764999389648     0.910441994667     0.000000901685     
17.870000839233     0.915742993355     0.000000911600     
17.975000381470     0.921043992043     0.000000921431     
18.079999923706     0.926344990730     0.000000933111     
18.184999465942     0.931645989418     0.000000946009     
18.290000915527     0.936780989170     0.000000957815     
18.395000457764     0.942081987858     0.000000967478     
18.500000000000     0.947382986546     0.000000979031     
18.604999542236     0.952683985233     0.000000989451     
18.709999084473     0.957819998264     0.000001002643     
18.815000534058     0.963119983673     0.000001012012     
18.920000076294     0.968420982361     0.000001024153     
19.024999618530     0.973556995392     0.000001035875     
19.084999084473     0.982833027840     0.000001058495     
19.190000534058     0.987968981266     0.000001070445     
19.295000076294     0.993269979954     0.000001082394     
19.399999618530     0.998570978642     0.000001093573     
19.504999160767     1.003872036934     0.000001105137     
19.610000610352     1.009006977081     0.000001117472     
19.715000152588     1.014307975769     0.000001129807     
19.819999694824     1.019608974457     0.000001144069     
19.924999237061     1.024909973145     0.000001158717     
20.030000686646     1.030210971832     0.000001171823     
20.135000228882     1.035511970520     0.000001187627     
20.239999771118     1.040647029877     0.000001210755     
20.344999313354     1.045948028564     0.000001223475     
20.450000762939     1.051249027252     0.000001237738     
20.555000305176     1.056550025940     0.000001254313     
20.659999847412     1.061684966087     0.000001270117     
20.764999389648     1.066985964775     0.000001286692     
20.870000839233     1.072286963463     0.000001304809     
20.975000381470     1.077587962151     0.000001324083     
21.079999923706     1.082723975182     0.000001342585     
21.184999465942     1.088024973869     0.000001361858     
21.290000915527     1.093325972557     0.000001382674     
21.395000457764     1.098461031914     0.000001403489     
21.500000000000     1.103762030602     0.000001423919     
21.604999542236     1.109063029289     0.000001446661     
21.709999084473     1.114364027977     0.000001469789     
21.815000534058     1.119665026665     0.000001492918     
21.920000076294     1.124799966812     0.000001516046     
22.024999618530     1.130100965500     0.000001541487     
22.129999160767     1.135568022728     0.000001567313     
22.235000610352     1.140702962875     0.000001594296     
22.340000152588     1.146003961563     0.000001622820     
22.444999694824     1.151139020920     0.000001650574     
22.549999237061     1.156440019608     0.000001678713     
22.655000686646     1.161741018295     0.000001708780     
22.760000228882     1.167042016983     0.000001740773     
22.864999771118     1.172343015671     0.000001773538     
22.969999313354     1.177479028702     0.000001806689     
23.075000762939     1.182780027390     0.000001842152     
23.180000305176     1.188081026077     0.000001877615     
23.284999847412     1.193382024765     0.000001915005     
23.389999389648     1.198186039925     0.000001943915     
23.495000839233     1.195701003075     0.000001841381     
23.600000381470     1.190400004387     0.000001715333     
23.704999923706     1.185099005699     0.000001602776     
23.809999465942     1.179962992668     0.000001503711     
23.915000915527     1.174661993980     0.000001414282     
24.020000457764     1.169360995293     0.000001332948     
24.125000000000     1.164226055145     0.000001260480     
24.229999542236     1.159090995789     0.000001194565     
24.334999084473     1.153624057770     0.000001133661     
24.440000534058     1.148323059082     0.000001076998     
24.545000076294     1.143187999725     0.000001026116     
24.649999618530     1.137887001038     0.000000979089     
24.754999160767     1.132586002350     0.000000935916     
24.860000610352     1.127285003662     0.000000896984     
24.965000152588     1.122149944305     0.000000859208     
25.069999694824     1.116848945618     0.000000823745     
25.174999237061     1.111547946930     0.000000790980     
25.280000686646     1.106246948242     0.000000762070     
25.385000228882     1.101111054420     0.000000734317     
25.489999771118     1.095810055733     0.000000707719     
25.594999313354     1.090509057045     0.000000682664     
25.700000762939     1.085373997688     0.000000659536     
25.805000305176     1.079908013344     0.000000638335     
25.909999847412     1.074772000313     0.000000617905     
26.014999389648     1.069471001625     0.000000600174     
26.120000839233     1.064170002937     0.000000582442     
26.225000381470     1.058869004250     0.000000564325     
26.329999923706     1.053568005562     0.000000547365     
26.434999465942     1.048432946205     0.000000532331     
26.540000915527     1.043131947517     0.000000517684     
26.645000457764     1.037997007370     0.000000504963     
26.750000000000     1.032529950142     0.000000492243     
26.854999542236     1.027395009995     0.000000479137     
26.959999084473     1.022094011307     0.000000467958     
27.065000534058     1.016793012619     0.000000456394     
27.170000076294     1.011492013931     0.000000445601     
27.274999618530     1.006191015244     0.000000434808     
27.379999160767     1.001055955887     0.000000425942     
27.485000610352     0.995589017868     0.000000417076     
27.590000152588     0.990454018116     0.000000407440     
27.694999694824     0.985153019428     0.000000398188     
27.799999237061     0.980017006397     0.000000390094     
27.905000686646     0.974716007710     0.000000381228     
28.010000228882     0.969415009022     0.000000374675     
28.114999771118     0.964114010334     0.000000368507     
28.219999313354     0.958813011646     0.000000360413     
28.325000762939     0.953678011894     0.000000352703     
28.399999618530     0.945726990700     0.000000341356     
28.504999160767     0.940425992012     0.000000334928     
28.610000610352     0.935124993324     0.000000330013     
28.715000152588     0.929823994637     0.000000325307     
28.819999694824     0.924522995949     0.000000319174     
28.924999237061     0.919386982918     0.000000312115     
29.030000686646     0.914085984230     0.000000307410     
29.135000228882     0.908785998821     0.000000301612     
29.239999771118     0.903485000134     0.000000295814     
29.344999313354     0.898184001446     0.000000290773     
29.450000762939     0.892883002758     0.000000286025     
29.555000305176     0.887746989727     0.000000280774     
29.659999847412     0.882445991039     0.000000276908     
29.764999389648     0.877144992352     0.000000273799     
29.870000839233     0.872009992599     0.000000268800     
29.975000381470     0.866708993912     0.000000263632     
30.079999923706     0.861407995224     0.000000259767     
30.184999465942     0.856106996536     0.000000255230     
30.290000915527     0.850971996784     0.000000251532     
30.395000457764     0.845670998096     0.000000249096     
30.500000000000     0.840369999409     0.000000246365     
30.604999542236     0.835234999657     0.000000242500     
30.709999084473     0.829768002033     0.000000238592     
30.815000534058     0.824633002281     0.000000235231     
30.920000076294     0.819332003593     0.000000231576     
31.024999618530     0.814031004906     0.000000228635     
31.129999160767     0.808730006218     0.000000224728     
31.235000610352     0.803593993187     0.000000220317     
31.340000152588     0.798292994499     0.000000215695     
31.444999694824     0.792991995811     0.000000212124     
31.549999237061     0.787690997124     0.000000209477     
31.655000686646     0.782555997372     0.000000205738     
31.760000228882     0.777254998684     0.000000201621     
31.864999771118     0.771953999996     0.000000198344     
31.969999313354     0.766819000244     0.000000194689     
32.075000762939     0.761352002621     0.000000190571     
32.180000305176     0.756217002869     0.000000187673     
32.284999847412     0.750916004181     0.000000184690     
32.389999389648     0.745615005493     0.000000180530     
32.494998931885     0.740480005741     0.000000176749     
32.599998474121     0.735179007053     0.000000173766     
32.705001831055     0.729878008366     0.000000170573     
32.810001373291     0.724577009678     0.000000167002     
32.915000915527     0.719276010990     0.000000164061     
33.020000457764     0.713975012302     0.000000160658     
33.125000000000     0.708674013615     0.000000156499     
33.229999542236     0.703538000584     0.000000152844     
33.334999084473     0.698238015175     0.000000150197     
33.439998626709     0.693102002144     0.000000146752     
33.544998168945     0.687636017799     0.000000143223     
33.650001525879     0.682500004768     0.000000139988     
33.755001068115     0.677199006081     0.000000136585     
33.860000610352     0.671898007393     0.000000132635     
33.965000152588     0.666597008705     0.000000129610     
34.069999694824     0.661462008953     0.000000126754     
34.174999237061     0.656161010265     0.000000123182     
34.279998779297     0.650860011578     0.000000118981     
34.384998321533     0.645559012890     0.000000115956     
34.490001678467     0.640424013138     0.000000112343     
34.595001220703     0.635123014450     0.000000108940     
34.700000762939     0.629822015762     0.000000105705     
34.805000305176     0.624521017075     0.000000102344     
34.909999847412     0.619220018387     0.000000098101     
35.014999389648     0.613919019699     0.000000094782     
35.119998931885     0.608784019947     0.000000091883     
35.224998474121     0.603483021259     0.000000088606     
