
Cycle 1
Physical Cycle 1
Step 1

Time (s),          Potential (V),         Current (A)
0.104999996722     0.002479000017     -0.000001768839     
0.209999993443     0.007931999862     -0.000001584664     
0.314999997616     0.013055000454     -0.000001427349     
0.419999986887     0.018342999741     -0.000001289219     
0.449999988079     0.028423000127     -0.000000997169     
0.555000007153     0.033711001277     -0.000000893442     
0.660000026226     0.038998998702     -0.000000797813     
0.764999985695     0.044286999851     -0.000000710666     
0.870000004768     0.049410000443     -0.000000629304     
0.975000023842     0.054864000529     -0.000000554112     
1.080000042915     0.059985999018     -0.000000484703     
1.184999942780     0.065274000168     -0.000000420307     
1.289999961853     0.070561997592     -0.000000359382     
1.394999980927     0.075685001910     -0.000000303855     
1.500000000000     0.080972999334     -0.000000252184     
1.605000019073     0.086260996759     -0.000000203213     
1.720000028610     0.097497999668     -0.000000104638     
1.825000047684     0.102620996535     -0.000000065721     
1.929999947548     0.107909001410     -0.000000031277     
2.035000085831     0.113031998277     0.000000001477     
2.140000104904     0.118320003152     0.000000032839     
2.244999885559     0.123608000576     0.000000061077     
2.349999904633     0.128895998001     0.000000088556     
2.454999923706     0.134184002876     0.000000114726     
2.559999942780     0.139307007194     0.000000137308     
2.664999961853     0.144594997168     0.000000158877     
2.769999980927     0.149883002043     0.000000180151     
2.875000000000     0.155171006918     0.000000198808     
2.980000019073     0.160458996892     0.000000215607     
3.085000038147     0.165582001209     0.000000231985     
3.190000057220     0.170870006084     0.000000246885     
3.295000076294     0.176157996058     0.000000260181     
3.400000095367     0.181281000376     0.000000273097     
3.505000114441     0.186734005809     0.000000285084     
3.609999895096     0.191856995225     0.000000295426     
3.714999914169     0.197145000100     0.000000305218     
3.819999933243     0.202433004975     0.000000314842     
3.924999952316     0.207720994949     0.000000323157     
4.030000209808     0.213008999825     0.000000330586     
4.135000228882     0.218297004700     0.000000338733     
4.239999771118     0.223419994116     0.000000344642     
4.344999790192     0.228707998991     0.000000350847     
4.449999809265     0.233996003866     0.000000357685     
4.554999828339     0.239283993840     0.000000364481     
4.659999847412     0.244571998715     0.000000370643     
4.764999866486     0.249695003033     0.000000378030     
4.869999885559     0.254983007908     0.000000386641     
4.974999904633     0.260271012783     0.000000394450     
5.079999923706     0.265558987856     0.000000402849     
5.184999942780     0.270846992731     0.000000412853     
5.289999961853     0.276134997606     0.000000422224     
5.394999980927     0.281257987022     0.000000432101     
5.500000000000     0.286545991898     0.000000443160     
5.605000019073     0.291833996773     0.000000454050     
5.710000038147     0.297122001648     0.000000464180     
5.815000057220     0.302244991064     0.000000475914     
5.920000076294     0.307532995939     0.000000488451     
6.025000095367     0.312821000814     0.000000499552     
6.130000114441     0.318109005690     0.000000511455     
6.235000133514     0.323397010565     0.000000524329     
6.340000152588     0.328684985638     0.000000537161     
6.445000171661     0.333972990513     0.000000550203     
6.550000190735     0.339262008667     0.000000564597     
6.655000209808     0.344384014606     0.000000578948     
6.760000228882     0.349671989679     0.000000592877     
6.864999771118     0.354959994555     0.000000607777     
6.969999790192     0.360247999430     0.000000623564     
7.074999809265     0.365370988846     0.000000638464     
7.179999828339     0.370658993721     0.000000653702     
7.284999847412     0.375946998596     0.000000670037     
7.389999866486     0.381235003471     0.000000684895     
7.494999885559     0.386523008347     0.000000700048     
7.599999904633     0.391811996698     0.000000716552     
7.704999923706     0.396934002638     0.000000731663     
7.809999942780     0.402222007513     0.000000746352     
7.914999961853     0.407510012388     0.000000762223     
8.020000457764     0.412633001804     0.000000777038     
8.125000000000     0.418087005615     0.000000791010     
8.229999542236     0.423209011555     0.000000806036     
8.335000038147     0.428496986628     0.000000820472     
8.439999580383     0.433620005846     0.000000834064     
8.545000076294     0.438908010721     0.000000847402     
8.649999618530     0.444195985794     0.000000861162     
8.755000114441     0.449483990669     0.000000873783     
8.859999656677     0.454771995544     0.000000886066     
8.965000152588     0.460060000420     0.000000898560     
9.069999694824     0.465348988771     0.000000910632     
9.175000190735     0.470636993647     0.000000921184     
9.279999732971     0.475758999586     0.000000932454     
9.385000228882     0.481047004461     0.000000943387     
9.489999771118     0.486335009336     0.000000952842     
9.595000267029     0.491623997688     0.000000962339     
9.699999809265     0.496912002563     0.000000972427     
9.805000305176     0.502034008503     0.000000980911     
9.909999847412     0.507322013378     0.000000989311     
10.015000343323     0.512610018253     0.000000998259     
10.119999885559     0.517898976803     0.000001006364     
10.225000381470     0.523186981678     0.000001013539     
10.329999923706     0.528308987617     0.000001021644     
10.435000419617     0.533596992493     0.000001029368     
10.539999961853     0.538884997368     0.000001036164     
10.645000457764     0.544174015522     0.000001043635     
10.694999694824     0.553758025169     0.000001054624     
10.800000190735     0.559045970440     0.000001061179     
10.904999732971     0.564333975315     0.000001067349     
11.010000228882     0.569621980190     0.000001074290     
11.114999771118     0.574744999409     0.000001082002     
11.220000267029     0.580033004284     0.000001088943     
11.324999809265     0.585321009159     0.000001095498     
11.430000305176     0.590609014034     0.000001103981     
11.534999847412     0.595897018909     0.000001111308     
11.640000343323     0.601185023785     0.000001118634     
11.744999885559     0.606473028660     0.000001127118     
11.850000381470     0.611760973930     0.000001135215     
11.954999923706     0.617048978806     0.000001142542     
12.060000419617     0.622171998024     0.000001151025     
12.164999961853     0.627460002899     0.000001159508     
12.270000457764     0.632748007774     0.000001167606     
12.375000000000     0.638036012650     0.000001175318     
12.479999542236     0.643324017525     0.000001184572     
12.585000038147     0.648612976074     0.000001192284     
12.689999580383     0.653900980949     0.000001200768     
12.795000076294     0.659022986889     0.000001209637     
12.899999618530     0.664310991764     0.000001217734     
13.005000114441     0.669598996639     0.000001225446     
13.109999656677     0.674888014793     0.000001233930     
13.215000152588     0.680176019669     0.000001242027     
13.319999694824     0.685298025608     0.000001249354     
13.425000190735     0.690585970879     0.000001256680     
13.529999732971     0.695873975754     0.000001264392     
13.635000228882     0.701162993908     0.000001270947     
13.739999771118     0.706450998783     0.000001277117     
13.845000267029     0.711739003658     0.000001284444     
13.949999809265     0.717027008533     0.000001290613     
14.055000305176     0.722315013409     0.000001295626     
14.159999847412     0.727603018284     0.000001302181     
14.265000343323     0.732725977898     0.000001307194     
14.369999885559     0.738013982773     0.000001311821     
14.475000381470     0.743301987648     0.000001316834     
14.579999923706     0.748589992523     0.000001321847     
14.685000419617     0.753713011742     0.000001325703     
14.789999961853     0.759166002274     0.000001329945     
14.895000457764     0.764289021492     0.000001334958     
15.000000000000     0.769577026367     0.000001338814     
15.104999542236     0.774864971638     0.000001342670     
15.210000038147     0.780152976513     0.000001347297     
15.314999580383     0.785440981388     0.000001351539     
15.420000076294     0.790728986263     0.000001355395     
15.524999618530     0.796016991138     0.000001359636     
15.630000114441     0.801304996014     0.000001365035     
15.734999656677     0.806428015232     0.000001368891     
15.840000152588     0.811716020107     0.000001373903     
15.944999694824     0.817004024982     0.000001379302     
16.049999237061     0.822291970253     0.000001384315     
16.155000686646     0.827414989471     0.000001389328     
16.260000228882     0.832867980003     0.000001396268     
16.364999771118     0.838155984879     0.000001402053     
16.469999313354     0.843279004097     0.000001407837     
16.575000762939     0.848567008972     0.000001414777     
16.680000305176     0.853855013847     0.000001421718     
16.784999847412     0.859143018723     0.000001427888     
16.889999389648     0.864431023598     0.000001435986     
16.995000839233     0.869719028473     0.000001443698     
17.100000381470     0.874841988087     0.000001451024     
17.204999923706     0.880129992962     0.000001459122     
17.309999465942     0.885417997837     0.000001468762     
17.415000915527     0.890870988369     0.000001477245     
17.520000457764     0.895994007587     0.000001485728     
17.625000000000     0.901282012463     0.000001495368     
17.729999542236     0.906570017338     0.000001506165     
17.834999084473     0.911858022213     0.000001515034     
17.940000534058     0.916980981827     0.000001525445     
18.045000076294     0.922268986702     0.000001536242     
18.149999618530     0.927556991577     0.000001547425     
18.254999160767     0.932844996452     0.000001558222     
18.360000610352     0.938133001328     0.000001570947     
18.465000152588     0.943421006203     0.000001582515     
18.569999694824     0.948709011078     0.000001594083     
18.674999237061     0.953831970692     0.000001607579     
18.780000686646     0.959119975567     0.000001621075     
18.885000228882     0.964407980442     0.000001633414     
18.989999771118     0.969695985317     0.000001647682     
19.094999313354     0.974983990192     0.000001662335     
19.200000762939     0.980271995068     0.000001676216     
19.305000305176     0.985561013222     0.000001691255     
19.409999847412     0.990683019161     0.000001707064     
19.514999389648     0.995971024036     0.000001722489     
19.620000839233     1.001258969307     0.000001738298     
19.725000381470     1.006546974182     0.000001755650     
19.829999923706     1.011836051941     0.000001773003     
19.934999465942     1.017124056816     0.000001789969     
20.040000915527     1.022246003151     0.000001808864     
20.145000457764     1.027699947357     0.000001828144     
20.250000000000     1.032822012901     0.000001847424     
20.354999542236     1.038110971451     0.000001867090     
20.459999084473     1.043398976326     0.000001888298     
20.565000534058     1.048686981201     0.000001909506     
20.670000076294     1.053974986076     0.000001931100     
20.774999618530     1.059262990952     0.000001954622     
20.879999160767     1.064550995827     0.000001978143     
20.985000610352     1.069674015045     0.000002001665     
21.090000152588     1.074962019920     0.000002027501     
21.194999694824     1.080250024796     0.000002054493     
21.299999237061     1.085538029671     0.000002080328     
21.405000686646     1.090826034546     0.000002108477     
21.510000228882     1.095949053764     0.000002137783     
21.614999771118     1.101402044296     0.000002167089     
21.719999313354     1.106524944305     0.000002198708     
21.825000762939     1.111812949181     0.000002231099     
21.930000305176     1.117100954056     0.000002263875     
22.034999847412     1.122388958931     0.000002298579     
22.139999389648     1.127676963806     0.000002335597     
22.245000839233     1.132799983025     0.000002373001     
22.350000381470     1.138252973557     0.000002411561     
22.454999923706     1.143375992775     0.000002451664     
22.559999465942     1.148663997650     0.000002494466     
22.665000915527     1.153952002525     0.000002538039     
22.770000457764     1.159240007401     0.000002583540     
22.875000000000     1.164528012276     0.000002632126     
22.979999542236     1.169651031494     0.000002681098     
23.084999084473     1.174939036369     0.000002732383     
23.190000534058     1.180227041245     0.000002785982     
23.295000076294     1.185515046120     0.000002841509     
23.399999618530     1.190637946129     0.000002899735     
23.504999160767     1.196091055870     0.000002960274     
23.610000610352     1.197908997536     0.000002908989     
23.715000152588     1.192950963974     0.000002687653     
23.819999694824     1.187662959099     0.000002493695     
23.924999237061     1.182540059090     0.000002320944     
24.030000686646     1.177252054214     0.000002165161     
24.135000228882     1.171798944473     0.000002025187     
24.239999771118     1.166676044464     0.000001898709     
24.344999313354     1.161388039589     0.000001783028     
24.450000762939     1.156100034714     0.000001676987     
24.555000305176     1.150812029839     0.000001581358     
24.659999847412     1.145524024963     0.000001493055     
24.764999389648     1.140401005745     0.000001411307     
24.870000839233     1.135113000870     0.000001336114     
24.975000381470     1.129824995995     0.000001268248     
25.079999923706     1.124701976776     0.000001203467     
25.184999465942     1.119413971901     0.000001144855     
25.290000915527     1.114125967026     0.000001090871     
25.395000457764     1.108837962151     0.000001039200     
25.500000000000     1.103549957275     0.000000991771     
25.604999542236     1.098261952400     0.000000948198     
25.709999084473     1.092973947525     0.000000907324     
25.815000534058     1.087685942650     0.000000868764     
25.920000076294     1.082563042641     0.000000832902     
26.024999618530     1.077275037766     0.000000800126     
26.129999160767     1.071987032890     0.000000768121     
26.235000610352     1.066699028015     0.000000739201     
26.340000152588     1.061411023140     0.000000711823     
26.444999694824     1.056123018265     0.000000685217     
26.549999237061     1.050999999046     0.000000660924     
26.655000686646     1.045711994171     0.000000638944     
26.760000228882     1.040259003639     0.000000616579     
26.864999771118     1.035135984421     0.000000595757     
26.969999313354     1.029847979546     0.000000576862     
27.075000762939     1.024724960327     0.000000559124     
27.180000305176     1.019271969795     0.000000541001     
27.284999847412     1.014148950577     0.000000524806     
27.389999389648     1.008860945702     0.000000509382     
27.495000839233     1.003572940826     0.000000493957     
27.600000381470     0.998284995556     0.000000480076     
27.704999923706     0.992996990681     0.000000467351     
27.809999465942     0.987708985806     0.000000453855     
27.915000915527     0.982586026192     0.000000441130     
28.020000457764     0.977298021317     0.000000430333     
28.125000000000     0.972010016441     0.000000418765     
28.229999542236     0.966722011566     0.000000407582     
28.334999084473     0.961434006691     0.000000397557     
28.440000534058     0.956146001816     0.000000387917     
28.545000076294     0.950857996941     0.000000377891     
28.649999618530     0.945569992065     0.000000368636     
28.754999160767     0.940446972847     0.000000360539     
28.860000610352     0.935159027576     0.000000351670     
28.965000152588     0.929871022701     0.000000342801     
29.059999465942     0.922930002213     0.000000340084     
29.165000915527     0.917641997337     0.000000332697     
29.270000457764     0.912353992462     0.000000325352     
29.375000000000     0.907065987587     0.000000318092     
29.479999542236     0.901777982712     0.000000310790     
29.584999084473     0.896655023098     0.000000304585     
29.690000534058     0.891367018223     0.000000297578     
29.795000076294     0.886079013348     0.000000290614     
29.899999618530     0.880791008472     0.000000284831     
30.004999160767     0.875667989254     0.000000278922     
30.110000610352     0.870379984379     0.000000272210     
30.215000152588     0.864926993847     0.000000266301     
30.319999694824     0.859803974628     0.000000260940     
30.424999237061     0.854516029358     0.000000254356     
30.530000686646     0.849228024483     0.000000248531     
30.635000228882     0.843940019608     0.000000243803     
30.739999771118     0.838652014732     0.000000237683     
30.844999313354     0.833528995514     0.000000231900     
30.950000762939     0.828240990639     0.000000227595     
31.055000305176     0.822952985764     0.000000222023     
31.159999847412     0.817664980888     0.000000216240     
31.264999389648     0.812376976013     0.000000211513     
31.370000839233     0.807088971138     0.000000206532     
31.475000381470     0.801966011524     0.000000200918     
31.579999923706     0.796678006649     0.000000195937     
31.684999465942     0.791390001774     0.000000191294     
31.790000915527     0.786101996899     0.000000185807     
31.895000457764     0.780813992023     0.000000180615     
32.000000000000     0.775525987148     0.000000176352     
32.104999542236     0.770403027534     0.000000171667     
32.209999084473     0.764949977398     0.000000166180     
32.314998626709     0.759827017784     0.000000161916     
32.419998168945     0.754539012909     0.000000157316     
32.525001525879     0.749251008034     0.000000152250     
32.630001068115     0.743963003159     0.000000147776     
32.735000610352     0.738674998283     0.000000143597     
32.840000152588     0.733386993408     0.000000138448     
32.944999694824     0.728263974190     0.000000133889     
33.049999237061     0.722976028919     0.000000129921     
33.154998779297     0.717688024044     0.000000125025     
33.259998321533     0.712400019169     0.000000120171     
33.365001678467     0.707112014294     0.000000116710     
33.470001220703     0.701824009418     0.000000112404     
33.575000762939     0.696700990200     0.000000107508     
33.680000305176     0.691412985325     0.000000103794     
33.784999847412     0.686124980450     0.000000099404     
33.889999389648     0.680836975574     0.000000094719     
33.994998931885     0.675548970699     0.000000091089     
34.099998474121     0.670260012150     0.000000086952     
34.205001831055     0.664972007275     0.000000082309     
34.310001373291     0.659684002399     0.000000078046     
34.415000915527     0.654561996460     0.000000074669     
34.520000457764     0.649273991585     0.000000070406     
34.625000000000     0.643984973431     0.000000065847     
34.729999542236     0.638697028160     0.000000061795     
34.834999084473     0.633409023285     0.000000058376     
34.939998626709     0.628287017345     0.000000053733     
35.044998168945     0.622999012470     0.000000050103     
35.150001525879     0.617709994316     0.000000046388     
35.255001068115     0.612421989441     0.000000041788     
35.360000610352     0.607133984566     0.000000037735     
