
Cycle 1
Physical Cycle 1
Step 1

Time (s),          Potential (V),         Current (A)
0.104999996722     0.002644000109     -0.000001799534     
0.209999993443     0.007931999862     -0.000001634545     
0.314999997616     0.013055000454     -0.000001488740     
0.419999986887     0.018342999741     -0.000001354447     
0.449999988079     0.028423000127     -0.000001055781     
0.555000007153     0.033877000213     -0.000000952439     
0.660000026226     0.038998998702     -0.000000854496     
0.764999985695     0.044286999851     -0.000000763108     
0.870000004768     0.049575001001     -0.000000677504     
0.975000023842     0.054864000529     -0.000000596528     
1.080000042915     0.059985999018     -0.000000519407     
1.184999942780     0.065274000168     -0.000000446914     
1.289999961853     0.070561997592     -0.000000377891     
1.394999980927     0.075850002468     -0.000000311567     
1.500000000000     0.081138998270     -0.000000248714     
1.605000019073     0.086260996759     -0.000000189331     
1.710000038147     0.091549001634     -0.000000130719     
1.799999952316     0.098489999771     -0.000000049976     
1.904999971390     0.103942997754     0.000000002406     
2.009999990463     0.109066002071     0.000000051918     
2.115000009537     0.114353999496     0.000000101008     
2.220000028610     0.119476996362     0.000000148494     
2.325000047684     0.124930001795     0.000000193658     
2.430000066757     0.130052998662     0.000000237219     
2.535000085831     0.135341003537     0.000000280146     
2.640000104904     0.140463992953     0.000000320287     
2.744999885559     0.145751997828     0.000000359162     
2.849999904633     0.151040002704     0.000000396222     
2.954999923706     0.156327992678     0.000000431130     
3.059999942780     0.161450996995     0.000000463505     
3.164999961853     0.166739001870     0.000000494993     
3.269999980927     0.172027006745     0.000000523865     
3.375000000000     0.177149996161     0.000000549739     
3.480000019073     0.182438001037     0.000000573377     
3.585000038147     0.187726005912     0.000000595157     
3.690000057220     0.193013995886     0.000000613518     
3.795000076294     0.198302000761     0.000000629304     
3.900000095367     0.203425005078     0.000000643318     
4.005000114441     0.208712995052     0.000000654461     
4.110000133514     0.214000999928     0.000000663114     
4.215000152588     0.219289004803     0.000000670501     
4.320000171661     0.224411994219     0.000000675482     
4.425000190735     0.229699999094     0.000000677972     
4.530000209808     0.234988003969     0.000000680125     
4.635000228882     0.240275993943     0.000000681054     
4.739999771118     0.245563998818     0.000000679998     
4.844999790192     0.250851988792     0.000000678141     
4.949999809265     0.256139993668     0.000000676453     
5.054999828339     0.261263012886     0.000000673456     
5.159999847412     0.266716003418     0.000000670037     
5.264999866486     0.272004008293     0.000000666998     
5.369999885559     0.277292013168     0.000000662819     
5.474999904633     0.282415002584     0.000000658260     
5.579999923706     0.287703007460     0.000000654504     
5.684999942780     0.292991012335     0.000000650409     
5.789999961853     0.298278987408     0.000000645386     
5.894999980927     0.303566992283     0.000000641081     
6.000000000000     0.308854997158     0.000000637366     
6.105000019073     0.314143002033     0.000000633272     
6.210000038147     0.319431006908     0.000000629600     
6.315000057220     0.324719011784     0.000000626856     
6.420000076294     0.329842001200     0.000000624324     
6.525000095367     0.335130006075     0.000000622509     
6.630000114441     0.340418010950     0.000000622255     
6.735000133514     0.345705986023     0.000000622720     
6.840000152588     0.350993990898     0.000000623015     
6.945000171661     0.356281995773     0.000000625083     
7.050000190735     0.361404985189     0.000000628123     
7.155000209808     0.366692990065     0.000000630908     
7.260000228882     0.371980994940     0.000000633863     
7.364999771118     0.377268999815     0.000000638084     
7.469999790192     0.382391989231     0.000000641630     
7.574999809265     0.387679994106     0.000000645640     
7.679999828339     0.392967998981     0.000000649818     
7.784999847412     0.398256003857     0.000000653913     
7.889999866486     0.403544008732     0.000000657078     
7.994999885559     0.408832013607     0.000000661384     
8.100000381470     0.413955003023     0.000000665563     
8.204999923706     0.419409006834     0.000000669277     
8.310000419617     0.424531012774     0.000000672780     
8.414999961853     0.429818987846     0.000000677170     
8.520000457764     0.435106992722     0.000000680969     
8.625000000000     0.440396010876     0.000000684810     
8.729999542236     0.445683985949     0.000000688989     
8.835000038147     0.450971990824     0.000000692957     
8.939999580383     0.456259995699     0.000000696460     
9.045000076294     0.461382001638     0.000000700765     
9.149999618530     0.466670989990     0.000000705029     
9.255000114441     0.471958994865     0.000000708237     
9.359999656677     0.477246999741     0.000000711782     
9.465000152588     0.482535004616     0.000000715919     
9.569999694824     0.487823009491     0.000000719169     
9.675000190735     0.492945998907     0.000000722208     
9.779999732971     0.498234003782     0.000000725796     
9.885000228882     0.503521978855     0.000000728750     
9.989999771118     0.508809983730     0.000000731410     
10.095000267029     0.514097988605     0.000000734913     
10.199999809265     0.519385993481     0.000000737826     
10.305000305176     0.524509012699     0.000000739894     
10.409999847412     0.529962003231     0.000000742849     
10.515000343323     0.535085022449     0.000000746056     
10.619999885559     0.540373027325     0.000000748378     
10.725000381470     0.545495986938     0.000000750531     
10.829999923706     0.550948977470     0.000000753528     
10.935000419617     0.556071996689     0.000000755934     
11.039999961853     0.561360001564     0.000000758297     
11.145000457764     0.566648006439     0.000000761041     
11.250000000000     0.571936011314     0.000000763785     
11.354999542236     0.577224016190     0.000000765600     
11.460000038147     0.582512021065     0.000000768596     
11.564999580383     0.587634980679     0.000000771509     
11.670000076294     0.593087971210     0.000000773746     
11.774999618530     0.598375976086     0.000000776152     
11.880000114441     0.603498995304     0.000000779360     
11.984999656677     0.608787000179     0.000000782061     
12.090000152588     0.614075005054     0.000000784847     
12.194999694824     0.619198024273     0.000000787928     
12.300000190735     0.624486029148     0.000000790968     
12.404999732971     0.629773974419     0.000000793542     
12.510000228882     0.635061979294     0.000000797172     
12.614999771118     0.640349984169     0.000000800423     
12.720000267029     0.645637989044     0.000000802871     
12.824999809265     0.650925993919     0.000000806079     
12.930000305176     0.656213998795     0.000000809878     
13.034999847412     0.661337018013     0.000000812874     
13.140000343323     0.666625022888     0.000000815956     
13.244999885559     0.672078013420     0.000000819501     
13.350000381470     0.677366018295     0.000000822583     
13.454999923706     0.682488977909     0.000000825664     
13.560000419617     0.687776982784     0.000000829378     
13.664999961853     0.693064987659     0.000000833008     
13.770000457764     0.698352992535     0.000000835119     
13.875000000000     0.703476011753     0.000000838453     
13.979999542236     0.708764016628     0.000000842041     
14.085000038147     0.714052021503     0.000000844869     
14.189999580383     0.719340026379     0.000000847529     
14.295000076294     0.724627971649     0.000000851327     
14.399999618530     0.729915976524     0.000000855253     
14.505000114441     0.735038995743     0.000000859221     
14.609999656677     0.740327000618     0.000000862429     
14.715000152588     0.745615005493     0.000000865046     
14.819999694824     0.750903010368     0.000000866861     
14.925000190735     0.756191015244     0.000000869435     
15.029999732971     0.761479020119     0.000000871968     
15.135000228882     0.766767024994     0.000000873825     
15.239999771118     0.772054970264     0.000000875556     
15.345000267029     0.777177989483     0.000000877920     
15.449999809265     0.782465994358     0.000000879777     
15.555000305176     0.787753999233     0.000000881592     
15.659999847412     0.793042004108     0.000000883744     
15.765000343323     0.798330008984     0.000000885264     
15.869999885559     0.803453028202     0.000000886446     
15.975000381470     0.808740973473     0.000000888472     
16.079999923706     0.814028978348     0.000000890456     
16.184999465942     0.819316983223     0.000000891173     
16.290000915527     0.824604988098     0.000000892524     
16.395000457764     0.829894006252     0.000000894170     
16.500000000000     0.835182011127     0.000000895226     
16.604999542236     0.840304017067     0.000000896239     
16.709999084473     0.845758020878     0.000000897885     
16.815000534058     0.850880026817     0.000000898940     
16.920000076294     0.856168985367     0.000000899700     
17.024999618530     0.861456990242     0.000000901219     
17.129999160767     0.866744995117     0.000000902528     
17.235000610352     0.872032999992     0.000000902865     
17.340000152588     0.877321004868     0.000000903879     
17.444999694824     0.882444024086     0.000000905398     
17.549999237061     0.887732028961     0.000000905820     
17.655000686646     0.892853975296     0.000000906580     
17.760000228882     0.898307979107     0.000000907846     
17.864999771118     0.903595983982     0.000000908184     
17.969999313354     0.908883988857     0.000000909028     
18.075000762939     0.914171993732     0.000000910210     
18.180000305176     0.919295012951     0.000000911096     
18.284999847412     0.924583017826     0.000000911181     
18.389999389648     0.929871022701     0.000000912320     
18.495000839233     0.935159027576     0.000000913587     
18.600000381470     0.940446972847     0.000000914473     
18.704999923706     0.945569992065     0.000000914980     
18.809999465942     0.950857996941     0.000000916584     
18.915000915527     0.956146001816     0.000000917470     
19.020000457764     0.961434006691     0.000000918779     
19.125000000000     0.966722011566     0.000000920340     
19.229999542236     0.972010016441     0.000000921902     
19.334999084473     0.977298021317     0.000000922788     
19.440000534058     0.982586026192     0.000000925026     
19.545000076294     0.987873971462     0.000000927009     
19.649999618530     0.992996990681     0.000000928613     
19.754999160767     0.998284995556     0.000000930428     
19.860000610352     1.003738045692     0.000000933256     
19.965000152588     1.008860945702     0.000000935283     
20.069999694824     1.014148950577     0.000000937857     
20.174999237061     1.019436955452     0.000000940981     
20.280000686646     1.024724960327     0.000000944104     
20.385000228882     1.029847979546     0.000000946975     
20.489999771118     1.035135984421     0.000000950942     
20.594999313354     1.040423989296     0.000000954783     
20.700000762939     1.045547008514     0.000000958329     
20.805000305176     1.050835013390     0.000000962550     
20.909999847412     1.056123018265     0.000000967489     
21.014999389648     1.061411023140     0.000000972216     
21.120000839233     1.066699028015     0.000000977112     
21.225000381470     1.071987032890     0.000000982937     
21.329999923706     1.077275037766     0.000000988636     
21.434999465942     1.082563042641     0.000000994545     
21.540000915527     1.087685942650     0.000001001299     
21.645000457764     1.092973947525     0.000001008221     
21.750000000000     1.098261952400     0.000001014721     
21.854999542236     1.103549957275     0.000001022488     
21.959999084473     1.108837962151     0.000001030888     
22.065000534058     1.113960981369     0.000001038950     
22.104999542236     1.124207019806     0.000001049997     
22.209999084473     1.129495024681     0.000001059251     
22.315000534058     1.134783029556     0.000001069277     
22.420000076294     1.139906048775     0.000001079688     
22.524999618530     1.145194053650     0.000001090485     
22.629999160767     1.150482058525     0.000001101282     
22.735000610352     1.155769944191     0.000001113621     
22.840000152588     1.161057949066     0.000001126346     
22.944999694824     1.166345953941     0.000001138686     
23.049999237061     1.171633958817     0.000001152182     
23.155000686646     1.176756978035     0.000001166835     
23.260000228882     1.182044982910     0.000001181488     
23.364999771118     1.187332987785     0.000001196912     
23.469999313354     1.192620992661     0.000001213493     
23.575000762939     1.197744011879     0.000001229302     
23.680000305176     1.196586966515     0.000001187272     
23.784999847412     1.191298961639     0.000001130202     
23.889999389648     1.186010956764     0.000001079303     
23.995000839233     1.180722951889     0.000001033802     
24.100000381470     1.175600051880     0.000000993699     
24.204999923706     1.170312047005     0.000000957452     
24.309999465942     1.165024042130     0.000000924290     
24.415000915527     1.159736037254     0.000000894213     
24.520000457764     1.154448032379     0.000000867221     
24.625000000000     1.149160027504     0.000000841386     
24.729999542236     1.143872022629     0.000000817864     
24.834999084473     1.138584017754     0.000000796656     
24.940000534058     1.133460998535     0.000000776990     
25.045000076294     1.128172993660     0.000000757710     
25.149999618530     1.122884988785     0.000000740358     
25.254999160767     1.117761969566     0.000000724934     
25.360000610352     1.112473964691     0.000000709510     
25.465000152588     1.107020020485     0.000000695242     
25.569999694824     1.101897954941     0.000000682517     
25.674999237061     1.096609950066     0.000000670949     
25.780000686646     1.091321945190     0.000000659767     
25.885000228882     1.086034059525     0.000000649355     
25.989999771118     1.080744981766     0.000000639715     
26.094999313354     1.075456976891     0.000000629690     
26.200000762939     1.070168972015     0.000000620435     
26.305000305176     1.065047025681     0.000000612338     
26.409999847412     1.059759020805     0.000000603469     
26.514999389648     1.054469943047     0.000000594985     
26.620000839233     1.049182057381     0.000000586888     
26.725000381470     1.043894052505     0.000000579561     
26.829999923706     1.038771986961     0.000000572620     
26.934999465942     1.033318042755     0.000000566451     
27.040000915527     1.028195023537     0.000000560281     
27.145000457764     1.022907018661     0.000000553340     
27.250000000000     1.017619013786     0.000000547942     
27.354999542236     1.012331008911     0.000000542543     
27.459999084473     1.007043004036     0.000000536759     
27.565000534058     1.001754999161     0.000000531361     
27.670000076294     0.996466994286     0.000000527119     
27.774999618530     0.991343975067     0.000000521335     
27.879999160767     0.986056029797     0.000000516322     
27.985000610352     0.980768024921     0.000000512466     
28.090000152588     0.975480020046     0.000000507839     
28.194999694824     0.970192015171     0.000000502826     
28.299999237061     0.964904010296     0.000000499356     
28.405000686646     0.959780991077     0.000000495114     
28.510000228882     0.954492986202     0.000000490873     
28.614999771118     0.949204981327     0.000000486631     
28.719999313354     0.943916976452     0.000000483161     
28.825000762939     0.938628971577     0.000000479305     
28.930000305176     0.933341026306     0.000000475834     
29.034999847412     0.928218007088     0.000000472364     
29.139999389648     0.922765016556     0.000000468893     
29.245000839233     0.917641997337     0.000000465037     
29.350000381470     0.912353992462     0.000000461952     
29.454999923706     0.907065987587     0.000000458868     
29.559999465942     0.901777982712     0.000000455397     
29.665000915527     0.896489977837     0.000000451927     
29.770000457764     0.891201972961     0.000000449227     
29.875000000000     0.885914027691     0.000000446143     
29.979999542236     0.880626022816     0.000000442672     
30.084999084473     0.875503003597     0.000000440359     
30.190000534058     0.870214998722     0.000000436888     
30.295000076294     0.864926993847     0.000000433803     
30.399999618530     0.859638988972     0.000000431104     
30.504999160767     0.854350984097     0.000000428405     
30.610000610352     0.849062979221     0.000000424935     
30.715000152588     0.843940019608     0.000000421850     
30.819999694824     0.838652014732     0.000000419922     
30.924999237061     0.833364009857     0.000000416451     
31.030000686646     0.828076004982     0.000000413366     
31.135000228882     0.822788000107     0.000000411053     
31.239999771118     0.817499995232     0.000000408354     
31.344999313354     0.812211990356     0.000000405269     
31.450000762939     0.806923985481     0.000000402955     
31.555000305176     0.801801025867     0.000000400256     
31.659999847412     0.796513020992     0.000000397171     
31.764999389648     0.791225016117     0.000000394086     
31.870000839233     0.785937011242     0.000000392158     
31.975000381470     0.780649006367     0.000000389459     
32.080001831055     0.775361001492     0.000000385989     
32.185001373291     0.770237982273     0.000000383675     
32.290000915527     0.764949977398     0.000000380976     
32.395000457764     0.759661972523     0.000000378277     
32.500000000000     0.754374027252     0.000000375963     
32.604999542236     0.749086022377     0.000000373264     
32.669998168945     0.740657985210     0.000000376426     
32.775001525879     0.735369980335     0.000000374273     
32.880001068115     0.730081975460     0.000000371994     
32.985000610352     0.724793970585     0.000000368786     
33.090000152588     0.719505012035     0.000000366085     
33.194999694824     0.714383006096     0.000000363637     
33.299999237061     0.709095001221     0.000000360893     
33.404998779297     0.703806996346     0.000000358192     
33.509998321533     0.698518991470     0.000000355701     
33.615001678467     0.693229973316     0.000000353126     
33.720001220703     0.687942028046     0.000000350003     
33.825000762939     0.682820022106     0.000000347808     
33.930000305176     0.677532017231     0.000000345275     
34.034999847412     0.672078013420     0.000000342110     
34.139999389648     0.666954994202     0.000000339197     
34.244998931885     0.661666989326     0.000000337087     
34.349998474121     0.656378984451     0.000000334090     
34.455001831055     0.651090979576     0.000000331093     
34.560001373291     0.645802974701     0.000000328898     
34.665000915527     0.640680015087     0.000000325859     
34.770000457764     0.635392010212     0.000000322946     
34.875000000000     0.630104005337     0.000000320836     
34.979999542236     0.624816000462     0.000000318219     
35.084999084473     0.619527995586     0.000000314716     
35.189998626709     0.614239990711     0.000000312056     
35.294998168945     0.609116971493     0.000000309693     
