
Cycle 1
Physical Cycle 1
Step 1

Time (s),          Potential (V),         Current (A)
0.104999996722     0.002641000086     -0.000000412630     
0.209999993443     0.007922000252     -0.000000378244     
0.314999997616     0.013203999959     -0.000000351500     
0.419999986887     0.018319999799     -0.000000324755     
0.449999988079     0.028552999720     -0.000000265430     
0.555000007153     0.033668998629     -0.000000245426     
0.660000026226     0.039115998894     -0.000000226192     
0.764999985695     0.044397000223     -0.000000207343     
0.795000016689     0.054464999586     -0.000000173626     
0.899999976158     0.059581000358     -0.000000159238     
1.004999995232     0.065027996898     -0.000000144808     
1.110000014305     0.070143997669     -0.000000131135     
1.215000033379     0.075425997376     -0.000000118682     
1.320000052452     0.080706998706     -0.000000106776     
1.424999952316     0.085988000035     -0.000000094828     
1.529999971390     0.091269999743     -0.000000084436     
1.634999990463     0.096386000514     -0.000000074465     
1.740000009537     0.101833000779     -0.000000064032     
1.845000028610     0.106949001551     -0.000000054692     
1.950000047684     0.112231001258     -0.000000046614     
2.055000066757     0.117512002587     -0.000000037191     
2.160000085831     0.122792996466     -0.000000028650     
2.265000104904     0.128075003624     -0.000000021246     
2.369999885559     0.133191004395     -0.000000013084     
2.474999904633     0.138638004661     -0.000000004880     
2.569999933243     0.145239993930     0.000000004782     
2.674999952316     0.150520995259     0.000000012697     
2.779999971390     0.155801996589     0.000000019712     
2.884999990463     0.160918995738     0.000000027997     
2.990000009537     0.166034996510     0.000000036255     
3.095000028610     0.171316996217     0.000000043925     
3.200000047684     0.176597997546     0.000000052660     
3.305000066757     0.181713998318     0.000000062124     
3.410000085831     0.186995998025     0.000000070836     
3.515000104904     0.192111998796     0.000000080677     
3.565000057220     0.201684996486     0.000000101475     
3.670000076294     0.206965997815     0.000000111992     
3.775000095367     0.212247997522     0.000000123099     
3.880000114441     0.217363998294     0.000000136688     
3.984999895096     0.222645998001     0.000000150403     
4.090000152588     0.227926999331     0.000000163866     
4.195000171661     0.233208000660     0.000000179516     
4.300000190735     0.238490000367     0.000000195629     
4.405000209808     0.243606001139     0.000000212037     
4.510000228882     0.249053001404     0.000000230253     
4.614999771118     0.254334002733     0.000000249732     
4.719999790192     0.259451001883     0.000000269674     
4.824999809265     0.264732003212     0.000000291088     
4.929999828339     0.270013004541     0.000000314311     
5.034999847412     0.275294989347     0.000000337702     
5.139999866486     0.280575990677     0.000000362861     
5.244999885559     0.285692989826     0.000000389744     
5.349999904633     0.290973991156     0.000000416248     
5.454999923706     0.296256005764     0.000000444015     
5.559999942780     0.301537007093     0.000000473759     
5.664999961853     0.306652992964     0.000000503167     
5.769999980927     0.312099993229     0.000000532953     
5.875000000000     0.317216008902     0.000000564338     
5.980000019073     0.322497993708     0.000000595470     
6.085000038147     0.327778995037     0.000000626098     
6.190000057220     0.333061009645     0.000000657777     
6.295000076294     0.338176995516     0.000000689372     
6.400000095367     0.343457996845     0.000000719831     
6.505000114441     0.348574995995     0.000000751721     
6.610000133514     0.354021012783     0.000000783064     
6.715000152588     0.359138011932     0.000000813355     
6.820000171661     0.364419013262     0.000000843898     
6.925000190735     0.369700998068     0.000000874273     
7.030000209808     0.374817013741     0.000000903428     
7.135000228882     0.380097985268     0.000000932079     
7.239999771118     0.385379999876     0.000000961192     
7.344999790192     0.390661001205     0.000000988958     
7.449999809265     0.395778000355     0.000001015926     
7.480000019073     0.406506001949     0.000001073645     
7.585000038147     0.411787003279     0.000001097495     
7.690000057220     0.417068004608     0.000001120576     
7.795000076294     0.422185003757     0.000001144041     
7.900000095367     0.427630990744     0.000001166353     
8.005000114441     0.432747989893     0.000001187510     
8.109999656677     0.438028991222     0.000001208668     
8.215000152588     0.443311005831     0.000001229056     
8.319999694824     0.448592007160     0.000001247520     
8.425000190735     0.453873008490     0.000001265985     
8.529999732971     0.459154993296     0.000001284065     
8.635000228882     0.464435994625     0.000001300606     
8.739999771118     0.469718009233     0.000001316378     
8.845000267029     0.474833995104     0.000001332535     
8.949999809265     0.480116009712     0.000001347538     
9.055000305176     0.485397011042     0.000001361001     
9.159999847412     0.490678012371     0.000001375619     
9.265000343323     0.495959997177     0.000001389468     
9.369999885559     0.501241028309     0.000001401778     
9.475000381470     0.506523013115     0.000001414857     
9.579999923706     0.511803984642     0.000001427936     
9.685000419617     0.517086029053     0.000001439476     
9.789999961853     0.522202014923     0.000001452171     
9.895000457764     0.527648985386     0.000001464481     
10.000000000000     0.532764971256     0.000001476021     
10.104999542236     0.538046002388     0.000001488331     
10.210000038147     0.543492972851     0.000001501025     
10.314999580383     0.548609018326     0.000001512566     
10.420000076294     0.553891003132     0.000001524875     
10.524999618530     0.559171974659     0.000001537955     
10.630000114441     0.564454019070     0.000001550264     
10.734999656677     0.569734990597     0.000001562959     
10.840000152588     0.574850976467     0.000001576807     
10.944999694824     0.580133020878     0.000001589887     
11.050000190735     0.585578978062     0.000001604120     
11.154999732971     0.590695977211     0.000001618353     
11.260000228882     0.595977008343     0.000001632586     
11.364999771118     0.601258993149     0.000001647204     
11.470000267029     0.606540024281     0.000001663361     
11.574999809265     0.611820995808     0.000001679517     
11.680000305176     0.617102980614     0.000001694904     
11.784999847412     0.622384011745     0.000001711830     
11.890000343323     0.627665996552     0.000001729526     
11.994999885559     0.632947027683     0.000001745682     
12.100000381470     0.638064026833     0.000001763762     
12.204999923706     0.643344998360     0.000001782227     
12.310000419617     0.648626029491     0.000001800692     
12.414999961853     0.653908014297     0.000001819926     
12.520000457764     0.659188985825     0.000001839929     
12.625000000000     0.664470970631     0.000001859163     
12.729999542236     0.669752001762     0.000001879551     
12.835000038147     0.675033986568     0.000001900324     
12.939999580383     0.680315017700     0.000001921097     
13.045000076294     0.685431003571     0.000001941485     
13.149999618530     0.690877974033     0.000001964566     
13.255000114441     0.695994019508     0.000001985339     
13.359999656677     0.701276004314     0.000002007265     
13.465000152588     0.706556975842     0.000002030346     
13.569999694824     0.711839020252     0.000002053042     
13.675000190735     0.717119991779     0.000002074969     
13.779999732971     0.722401976585     0.000002098050     
13.885000228882     0.727683007717     0.000002121516     
13.989999771118     0.732963979244     0.000002144981     
14.095000267029     0.738246023655     0.000002168447     
14.199999809265     0.743362009525     0.000002193451     
14.305000305176     0.748808979988     0.000002216917     
14.409999847412     0.753925025463     0.000002241536     
14.515000343323     0.759207010269     0.000002266156     
14.619999885559     0.764487981796     0.000002290391     
14.725000381470     0.769769012928     0.000002315395     
14.829999923706     0.775050997734     0.000002340784     
14.935000419617     0.780332028866     0.000002365788     
15.039999961853     0.785614013672     0.000002390792     
15.145000457764     0.790729999542     0.000002417335     
15.250000000000     0.796177029610     0.000002442724     
15.354999542236     0.801293015480     0.000002468113     
15.460000038147     0.806573987007     0.000002494272     
15.564999580383     0.811855971813     0.000002520045     
15.670000076294     0.817137002945     0.000002545819     
15.774999618530     0.822418987751     0.000002573516     
15.880000114441     0.827700018883     0.000002599674     
15.984999656677     0.832982003689     0.000002625833     
16.090000152588     0.838097989559     0.000002653530     
16.194999694824     0.843544006348     0.000002680842     
16.299999237061     0.848825991154     0.000002707385     
16.405000686646     0.853941977024     0.000002735082     
16.510000228882     0.859224021435     0.000002763933     
16.614999771118     0.864504992962     0.000002791245     
16.719999313354     0.869786977768     0.000002820481     
16.825000762939     0.875068008900     0.000002848947     
16.930000305176     0.880348980427     0.000002877414     
17.034999847412     0.885631024837     0.000002906650     
17.139999389648     0.890911996365     0.000002935885     
17.245000839233     0.896028995514     0.000002965506     
17.350000381470     0.901310026646     0.000002995896     
17.454999923706     0.906592011452     0.000003026285     
17.559999465942     0.911872982979     0.000003056291     
17.665000915527     0.917155027390     0.000003087834     
17.770000457764     0.922435998917     0.000003120148     
17.875000000000     0.927716970444     0.000003151307     
17.979999542236     0.932999014854     0.000003182466     
18.084999084473     0.938115000725     0.000003215933     
18.190000534058     0.943396985531     0.000003249016     
18.295000076294     0.948678016663     0.000003281714     
18.399999618530     0.953960001469     0.000003316720     
18.504999160767     0.959240972996     0.000003350956     
18.610000610352     0.964522004128     0.000003385193     
18.715000152588     0.969803988934     0.000003420583     
18.819999694824     0.975085020065     0.000003455974     
18.924999237061     0.980367004871     0.000003491749     
19.030000686646     0.985482990742     0.000003528294     
19.135000228882     0.990930020809     0.000003565608     
19.239999771118     0.996046006680     0.000003603692     
19.344999313354     1.001327037811     0.000003641390     
19.450000762939     1.006608963013     0.000003681012     
19.555000305176     1.011890053749     0.000003719481     
19.659999847412     1.017171978951     0.000003758718     
19.764999389648     1.022287964821     0.000003799494     
19.870000839233     1.027570009232     0.000003840655     
19.975000381470     1.032850980759     0.000003882201     
20.079999923706     1.038131952286     0.000003926439     
20.184999465942     1.043413996696     0.000003969523     
20.290000915527     1.048694968224     0.000004014146     
20.395000457764     1.053977012634     0.000004060308     
20.500000000000     1.059257984161     0.000004106085     
20.604999542236     1.064540028572     0.000004152247     
20.709999084473     1.069656014442     0.000004201871     
20.815000534058     1.074936985970     0.000004251494     
20.920000076294     1.080219030380     0.000004301888     
21.024999618530     1.085500001907     0.000004353820     
21.129999160767     1.090782046318     0.000004407675     
21.235000610352     1.096063017845     0.000004462300     
21.340000152588     1.101344943047     0.000004517309     
21.444999694824     1.106626033783     0.000004575011     
21.549999237061     1.111907005310     0.000004633867     
21.655000686646     1.117189049721     0.000004694647     
21.760000228882     1.122305035591     0.000004757350     
21.864999771118     1.127586960793     0.000004821207     
21.969999313354     1.132868051529     0.000004887372     
22.075000762939     1.138149976730     0.000004955461     
22.180000305176     1.143430948257     0.000005024319     
22.284999847412     1.148547053337     0.000005095485     
22.389999389648     1.153828978539     0.000005170882     
22.495000839233     1.159109950066     0.000005246279     
22.600000381470     1.164391994476     0.000005324370     
22.704999923706     1.169837951660     0.000005406307     
22.809999465942     1.174955010414     0.000005489783     
22.915000915527     1.180235981941     0.000005575566     
23.020000457764     1.185518026352     0.000005663658     
23.125000000000     1.190798997879     0.000005754828     
23.229999542236     1.195914983749     0.000005849075     
23.334999084473     1.198060989380     0.000005750981     
23.440000534058     1.192945003510     0.000005353990     
23.545000076294     1.187662959099     0.000005000084     
23.649999618530     1.182546973228     0.000004681952     
23.754999160767     1.177265048027     0.000004392672     
23.860000610352     1.171983957291     0.000004126473     
23.965000152588     1.166702032089     0.000003883355     
24.069999694824     1.161420941353     0.000003658701     
24.174999237061     1.156139969826     0.000003451358     
24.280000686646     1.151023030281     0.000003260171     
24.385000228882     1.145742058754     0.000003083218     
24.489999771118     1.140460014343     0.000002917421     
24.594999313354     1.135344028473     0.000002764702     
24.700000762939     1.130061984062     0.000002623140     
24.805000305176     1.124616026878     0.000002489655     
24.909999847412     1.119500041008     0.000002365019     
25.014999389648     1.114217996597     0.000002251153     
25.120000839233     1.108937025070     0.000002143058     
25.225000381470     1.103654980659     0.000002041502     
25.329999923706     1.098374009132     0.000001948794     
25.434999465942     1.093256950378     0.000001860702     
25.540000915527     1.087975978851     0.000001777996     
25.645000457764     1.082695007324     0.000001701059     
25.750000000000     1.077412962914     0.000001628739     
25.854999542236     1.072131991386     0.000001560651     
25.959999084473     1.066849946976     0.000001497178     
26.065000534058     1.061568975449     0.000001437553     
26.170000076294     1.056287050247     0.000001381774     
26.274999618530     1.051005959511     0.000001329073     
26.379999160767     1.045724034309     0.000001279449     
26.485000610352     1.040608048439     0.000001232518     
26.590000152588     1.035326957703     0.000001187895     
26.694999694824     1.030045032501     0.000001147119     
26.799999237061     1.024763941765     0.000001107497     
26.905000686646     1.019482016563     0.000001070183     
27.010000228882     1.014201045036     0.000001036715     
27.114999771118     1.009085059166     0.000001002479     
27.219999313354     1.003803014755     0.000000970165     
27.325000762939     0.998521983624     0.000000941699     
27.430000305176     0.993239998817     0.000000912848     
27.534999847412     0.987959027290     0.000000885536     
27.639999389648     0.982676982880     0.000000860147     
27.745000839233     0.977396011353     0.000000835912     
27.850000381470     0.972114026546     0.000000812446     
27.954999923706     0.966832995415     0.000000790135     
28.059999465942     0.961552023888     0.000000768977     
28.165000915527     0.956435024738     0.000000748589     
28.270000457764     0.951153993607     0.000000728586     
28.375000000000     0.945872008801     0.000000710506     
28.479999542236     0.940590977669     0.000000691656     
28.584999084473     0.935308992863     0.000000675115     
28.690000534058     0.930028021336     0.000000658959     
28.795000076294     0.924746990204     0.000000642033     
28.899999618530     0.919465005398     0.000000626645     
29.004999160767     0.914183974266     0.000000612412     
29.110000610352     0.908901989460     0.000000597025     
29.215000152588     0.903621017933     0.000000582792     
29.319999694824     0.898338973522     0.000000570097     
29.424999237061     0.893222987652     0.000000556633     
29.530000686646     0.887942016125     0.000000543170     
29.635000228882     0.882659971714     0.000000532014     
29.739999771118     0.877379000187     0.000000519319     
29.844999313354     0.872097015381     0.000000507010     
29.950000762939     0.866815984249     0.000000495854     
30.055000305176     0.861533999443     0.000000484698     
30.159999847412     0.856253027916     0.000000473158     
30.264999389648     0.850971996784     0.000000462387     
30.370000839233     0.845854997635     0.000000452770     
30.475000381470     0.840574026108     0.000000442383     
30.579999923706     0.835291981697     0.000000431997     
30.684999465942     0.830011010170     0.000000422380     
30.790000915527     0.824729025364     0.000000411993     
30.895000457764     0.819447994232     0.000000402761     
31.000000000000     0.814166009426     0.000000393529     
31.104999542236     0.808884978294     0.000000383527     
31.209999084473     0.803768992424     0.000000374679     
31.315000534058     0.798487007618     0.000000366216     
31.420000076294     0.793040990829     0.000000356215     
31.524999618530     0.787923991680     0.000000347752     
31.629999160767     0.782643020153     0.000000340058     
31.729999542236     0.775875985622     0.000000328573     
31.834999084473     0.770595014095     0.000000321042     
31.940000534058     0.765313029289     0.000000313554     
32.044998168945     0.760031998158     0.000000305055     
32.150001525879     0.754914999008     0.000000297356     
32.255001068115     0.749634027481     0.000000288900     
32.360000610352     0.744351983070     0.000000280654     
32.465000152588     0.739071011543     0.000000273292     
32.569999694824     0.733789980412     0.000000265635     
32.674999237061     0.728507995605     0.000000257515     
32.779998779297     0.723392009735     0.000000249774     
32.884998321533     0.717944979668     0.000000243674     
32.990001678467     0.712828993797     0.000000235007     
33.095001220703     0.707547008991     0.000000227477     
33.200000762939     0.702265977859     0.000000221040     
33.305000305176     0.696985006332     0.000000213678     
33.409999847412     0.691703021526     0.000000205937     
33.514999389648     0.686421990395     0.000000199247     
33.619998931885     0.681304991245     0.000000192600     
33.724998474121     0.676024019718     0.000000184733     
33.830001831055     0.670576989651     0.000000178296     
33.935001373291     0.665296018124     0.000000171354     
34.040000915527     0.660179972649     0.000000164034     
34.145000457764     0.654897987843     0.000000157513     
34.250000000000     0.649617016315     0.000000150992     
34.354999542236     0.644334971905     0.000000143672     
34.459999084473     0.639054000378     0.000000137319     
34.564998626709     0.633772015572     0.000000131135     
34.669998168945     0.628656029701     0.000000124319     
34.775001525879     0.623210012913     0.000000117546     
34.880001068115     0.618093013763     0.000000111446     
34.985000610352     0.612811982632     0.000000104209     
35.090000152588     0.607529997826     0.000000098193     
35.194999694824     0.602249026299     0.000000092093     
