
Cycle 1
Physical Cycle 1
Step 1

Time (s),          Potential (V),         Current (A)
0.104999996722     0.002318999963     -0.000002808663     
0.209999993443     0.007619999815     -0.000002636704     
0.314999997616     0.012920999900     -0.000002483852     
0.419999986887     0.018222000450     -0.000002330999     
0.449999988079     0.028326999396     -0.000002057243     
0.555000007153     0.033628001809     -0.000001924642     
0.660000026226     0.038763001561     -0.000001797823     
0.764999985695     0.044064000249     -0.000001674088     
0.870000004768     0.049364998937     -0.000001553436     
0.975000023842     0.054666001350     -0.000001435483     
1.080000042915     0.059967000037     -0.000001322541     
1.184999942780     0.065103001893     -0.000001213453     
1.289999961853     0.070404000580     -0.000001105522     
1.394999980927     0.075704999268     -0.000001003373     
1.500000000000     0.080839999020     -0.000000902766     
1.605000019073     0.086140997708     -0.000000806785     
1.710000038147     0.091441996396     -0.000000713501     
1.815000057220     0.096743002534     -0.000000622916     
1.919999957085     0.101878002286     -0.000000533873     
2.025000095367     0.107179000974     -0.000000448299     
2.130000114441     0.112479999661     -0.000000366580     
2.234999895096     0.117780998349     -0.000000286788     
2.339999914169     0.123081997037     -0.000000209695     
2.444999933243     0.128216996789     -0.000000134528     
2.549999952316     0.133517995477     -0.000000061675     
2.654999971390     0.139813005924     0.000000024620     
2.759999990463     0.144948005676     0.000000095076     
2.865000009537     0.150249004364     0.000000165069     
2.970000028610     0.155385002494     0.000000234223     
3.075000047684     0.160686001182     0.000000303503     
3.180000066757     0.165986999869     0.000000371270     
3.285000085831     0.171121999621     0.000000439289     
3.390000104904     0.176256999373     0.000000508401     
3.494999885559     0.181557998061     0.000000577092     
3.599999904633     0.186693996191     0.000000648262     
3.704999923706     0.191994994879     0.000000719684     
3.809999942780     0.197295993567     0.000000793375     
3.914999961853     0.202430993319     0.000000867360     
4.019999980927     0.207732006907     0.000000943320     
4.045000076294     0.218499004841     0.000001112075     
4.150000095367     0.223635002971     0.000001191096     
4.255000114441     0.228936001658     0.000001276670     
4.360000133514     0.234237000346     0.000001364942     
4.465000152588     0.239537999034     0.000001455913     
4.570000171661     0.244672998786     0.000001549967     
4.675000190735     0.249973997474     0.000001645948     
4.780000209808     0.255275011063     0.000001743857     
4.885000228882     0.260410010815     0.000001842152     
4.989999771118     0.265711009502     0.000001944301     
5.094999790192     0.271012008190     0.000002047991     
5.199999809265     0.276313006878     0.000002152453     
5.304999828339     0.281614005566     0.000002257686     
5.409999847412     0.286915004253     0.000002364846     
5.514999866486     0.292050004005     0.000002473548     
5.619999885559     0.297351002693     0.000002583792     
5.724999904633     0.302652001381     0.000002694807     
5.829999923706     0.307953000069     0.000002806978     
5.934999942780     0.313089013100     0.000002919149     
6.039999961853     0.318390011787     0.000003030935     
6.144999980927     0.323691010475     0.000003144262     
6.250000000000     0.328826010227     0.000003257976     
6.355000019073     0.334127008915     0.000003372074     
6.460000038147     0.339428007603     0.000003486173     
6.565000057220     0.344729006290     0.000003601042     
6.670000076294     0.349864006042     0.000003715912     
6.775000095367     0.355165004730     0.000003831166     
6.880000114441     0.360466003418     0.000003947963     
6.985000133514     0.365601003170     0.000004064375     
7.090000152588     0.370902001858     0.000004181171     
7.195000171661     0.376203000546     0.000004297583     
7.300000190735     0.381503999233     0.000004415536     
7.405000209808     0.386640012264     0.000004533489     
7.510000228882     0.391941010952     0.000004651442     
7.614999771118     0.397242009640     0.000004772094     
7.719999790192     0.402543008327     0.000004890047     
7.824999809265     0.407678008080     0.000005009157     
7.929999828339     0.412979006767     0.000005129423     
8.034999847412     0.418280005455     0.000005251616     
8.140000343323     0.423581004143     0.000005372268     
8.244999885559     0.428882002831     0.000005493304     
8.350000381470     0.434017002583     0.000005616654     
8.454999923706     0.439318001270     0.000005739619     
8.560000419617     0.444618999958     0.000005864125     
8.664999961853     0.449919998646     0.000005989016     
8.770000457764     0.455054998398     0.000006115064     
8.875000000000     0.460355997086     0.000006242654     
8.979999542236     0.465656995773     0.000006369859     
9.085000038147     0.470793008804     0.000006498605     
9.189999580383     0.476094007492     0.000006627737     
9.295000076294     0.481395006180     0.000006758025     
9.399999618530     0.486530005932     0.000006891397     
9.505000114441     0.491831004620     0.000007025154     
9.609999656677     0.497132003307     0.000007159683     
9.715000152588     0.502433001995     0.000007295367     
9.819999694824     0.507734000683     0.000007431438     
9.925000190735     0.512869000435     0.000007566737     
10.029999732971     0.518169999123     0.000007705505     
10.135000228882     0.523470997810     0.000007847358     
10.239999771118     0.528605997562     0.000007988824     
10.345000267029     0.533906996250     0.000008130677     
10.449999809265     0.539207994938     0.000008274456     
10.555000305176     0.544344007969     0.000008419778     
10.659999847412     0.549645006657     0.000008565484     
10.765000343323     0.554946005344     0.000008711577     
10.869999885559     0.560247004032     0.000008859982     
10.975000381470     0.565382003784     0.000009008002     
11.079999923706     0.570683002472     0.000009155636     
11.185000419617     0.575984001160     0.000009305583     
11.289999961853     0.581284999847     0.000009456301     
11.329999923706     0.591390013695     0.000009755804     
11.435000419617     0.596525013447     0.000009904836     
11.539999961853     0.601826012135     0.000010053867     
11.645000457764     0.607127010822     0.000010206719     
11.750000000000     0.612428009510     0.000010359571     
11.854999542236     0.617563009262     0.000010512424     
11.960000038147     0.622864007950     0.000010665276     
12.064999580383     0.628165006638     0.000010814307     
12.170000076294     0.633466005325     0.000010967160     
12.274999618530     0.638767004013     0.000011120012     
12.380000114441     0.643903017044     0.000011272864     
12.484999656677     0.649204015732     0.000011425717     
12.590000152588     0.654504001141     0.000011574748     
12.694999694824     0.659804999828     0.000011723779     
12.800000190735     0.665105998516     0.000011872810     
12.904999732971     0.670242011547     0.000012025663     
13.010000228882     0.675543010235     0.000012170872     
13.114999771118     0.680844008923     0.000012319903     
13.220000267029     0.685979008675     0.000012468935     
13.324999809265     0.691280007362     0.000012617966     
13.430000305176     0.696581006050     0.000012763175     
13.534999847412     0.701882004738     0.000012908385     
13.640000343323     0.707183003426     0.000013057416     
13.744999885559     0.712484002113     0.000013202626     
13.850000381470     0.717785000801     0.000013347836     
13.954999923706     0.722920000553     0.000013489224     
14.060000419617     0.728220999241     0.000013634434     
14.164999961853     0.733521997929     0.000013775823     
14.270000457764     0.738822996616     0.000013921032     
14.375000000000     0.743957996368     0.000014058599     
14.479999542236     0.749258995056     0.000014199988     
14.585000038147     0.754559993744     0.000014345198     
14.689999580383     0.759860992432     0.000014482765     
14.795000076294     0.765161991119     0.000014624153     
14.899999618530     0.770462989807     0.000014761721     
15.005000114441     0.775599002838     0.000014903109     
15.109999656677     0.780900001526     0.000015040676     
15.215000152588     0.786201000214     0.000015182065     
15.319999694824     0.791335999966     0.000015315811     
15.425000190735     0.796636998653     0.000015453377     
15.529999732971     0.801937997341     0.000015590946     
15.635000228882     0.807238996029     0.000015724690     
15.739999771118     0.812539994717     0.000015858435     
15.845000267029     0.817840993404     0.000015992182     
15.949999809265     0.822975993156     0.000016125929     
16.055000305176     0.828276991844     0.000016255854     
16.159999847412     0.833577990532     0.000016385777     
16.264999389648     0.838712990284     0.000016519523     
16.370000839233     0.844013988972     0.000016649448     
16.475000381470     0.849314987659     0.000016779371     
16.579999923706     0.854615986347     0.000016909296     
16.684999465942     0.859916985035     0.000017035400     
16.790000915527     0.865217983723     0.000017169146     
16.895000457764     0.870352983475     0.000017299069     
17.000000000000     0.875653982162     0.000017425175     
17.104999542236     0.880954980850     0.000017555098     
17.209999084473     0.886090993881     0.000017685023     
17.315000534058     0.891391992569     0.000017807304     
17.420000076294     0.896692991257     0.000017937229     
17.524999618530     0.901993989944     0.000018067154     
17.629999160767     0.907294988632     0.000018189436     
17.735000610352     0.912429988384     0.000018315539     
17.840000152588     0.917730987072     0.000018441642     
17.944999694824     0.923031985760     0.000018567745     
18.049999237061     0.928332984447     0.000018690027     
18.155000686646     0.933633983135     0.000018812309     
18.260000228882     0.938768982887     0.000018934590     
18.364999771118     0.944069981575     0.000019064517     
18.469999313354     0.949370980263     0.000019182977     
18.575000762939     0.954671978951     0.000019309078     
18.680000305176     0.959972977638     0.000019431362     
18.784999847412     0.965107977390     0.000019553643     
18.889999389648     0.970408976078     0.000019679746     
18.995000839233     0.975709974766     0.000019802028     
19.100000381470     0.980845987797     0.000019924310     
19.204999923706     0.986146986485     0.000020050415     
19.309999465942     0.991447985172     0.000020172694     
19.415000915527     0.996748983860     0.000020298799     
19.520000457764     1.002050042152     0.000020421081     
19.625000000000     1.007349967957     0.000020547184     
19.729999542236     1.012485980988     0.000020669466     
19.834999084473     1.017951965332     0.000020795569     
19.940000534058     1.023087978363     0.000020921672     
20.045000076294     1.028388977051     0.000021047776     
20.149999618530     1.033689975739     0.000021173879     
20.254999160767     1.038825035095     0.000021299982     
20.360000610352     1.044126033783     0.000021426085     
20.465000152588     1.049427032471     0.000021556010     
20.569999694824     1.054728031158     0.000021682114     
20.674999237061     1.060029029846     0.000021808217     
20.780000686646     1.065163969994     0.000021938142     
20.885000228882     1.070464968681     0.000022064243     
20.989999771118     1.075765967369     0.000022194168     
21.094999313354     1.081066966057     0.000022327915     
21.200000762939     1.086202025414     0.000022457840     
21.305000305176     1.091503024101     0.000022587763     
21.409999847412     1.096804022789     0.000022717688     
21.514999389648     1.102105021477     0.000022851435     
21.620000839233     1.107241034508     0.000022985179     
21.725000381470     1.112707018852     0.000023115104     
21.829999923706     1.117843031883     0.000023252671     
21.934999465942     1.123144030571     0.000023386418     
22.040000915527     1.128445029259     0.000023520162     
22.145000457764     1.133579969406     0.000023661552     
22.250000000000     1.138880968094     0.000023802941     
22.354999542236     1.144181966782     0.000023948151     
22.459999084473     1.149482965469     0.000024093360     
22.565000534058     1.154783964157     0.000024238569     
22.670000076294     1.159919023514     0.000024387600     
22.774999618530     1.165220022202     0.000024544273     
22.879999160767     1.170521020889     0.000024704768     
22.985000610352     1.175822019577     0.000024869085     
23.090000152588     1.181123018265     0.000025033401     
23.194999694824     1.186257958412     0.000025186255     
23.299999237061     1.191558957100     0.000025350571     
23.405000686646     1.196859955788     0.000025511066     
23.510000228882     1.197522997856     0.000025404070     
23.614999771118     1.192221999168     0.000025002832     
23.719999313354     1.186921000481     0.000024651272     
23.825000762939     1.181785941124     0.000024307354     
23.930000305176     1.176484942436     0.000023994005     
24.034999847412     1.171183943748     0.000023688301     
24.139999389648     1.165882945061     0.000023394059     
24.245000839233     1.160581946373     0.000023111283     
24.350000381470     1.155446052551     0.000022832328     
24.454999923706     1.150145053864     0.000022572478     
24.559999465942     1.144844055176     0.000022324093     
24.665000915527     1.139708995819     0.000022075708     
24.770000457764     1.134407997131     0.000021842608     
24.875000000000     1.129106998444     0.000021605687     
24.979999542236     1.123805999756     0.000021380229     
25.084999084473     1.118505001068     0.000021158594     
25.190000534058     1.113369941711     0.000020925494     
25.295000076294     1.107903003693     0.000020707679     
25.399999618530     1.102767944336     0.000020489864     
25.504999160767     1.097466945648     0.000020279693     
25.610000610352     1.092332005501     0.000020080985     
25.715000152588     1.087031006813     0.000019874633     
25.819999694824     1.081563949585     0.000019683568     
25.924999237061     1.076429009438     0.000019477216     
26.030000686646     1.071292996407     0.000019286152     
26.135000228882     1.065827012062     0.000019114193     
26.239999771118     1.060691952705     0.000018915483     
26.344999313354     1.055390954018     0.000018743525     
26.450000762939     1.050254940987     0.000018552460     
26.555000305176     1.044788956642     0.000018357572     
26.659999847412     1.039652943611     0.000018177972     
26.764999389648     1.034351944923     0.000018002191     
26.870000839233     1.029050946236     0.000017826411     
26.975000381470     1.023916006088     0.000017642988     
27.079999923706     1.018615007401     0.000017471029     
27.184999465942     1.013314008713     0.000017299069     
27.290000915527     1.008013010025     0.000017115646     
27.395000457764     1.002877950668     0.000016947510     
27.500000000000     0.997577011585     0.000016771730     
27.604999542236     0.992110013962     0.000016603592     
27.709999084473     0.986975014210     0.000016431633     
27.815000534058     0.981674015522     0.000016252032     
27.920000076294     0.976373016834     0.000016087715     
28.024999618530     0.971238017082     0.000015915755     
28.129999160767     0.965937018394     0.000015759082     
28.235000610352     0.960636019707     0.000015594766     
28.340000152588     0.955335021019     0.000015438092     
28.444999694824     0.950034022331     0.000015266132     
28.549999237061     0.944898009300     0.000015097996     
28.655000686646     0.939597010612     0.000014948965     
28.760000228882     0.934296011925     0.000014792291     
28.864999771118     0.928995013237     0.000014627975     
28.969999313354     0.923695027828     0.000014471301     
29.075000762939     0.918394029140     0.000014314627     
29.180000305176     0.913258016109     0.000014154132     
29.284999847412     0.907957017422     0.000013993637     
29.389999389648     0.902822017670     0.000013856070     
29.495000839233     0.897355020046     0.000013699396     
29.600000381470     0.892054021358     0.000013542723     
29.704999923706     0.886919021606     0.000013378406     
29.809999465942     0.881618022919     0.000013233197     
29.915000915527     0.876317024231     0.000013080344     
30.020000457764     0.871182024479     0.000012935134     
30.125000000000     0.865881025791     0.000012786103     
30.229999542236     0.860580027103     0.000012644715     
30.334999084473     0.855279028416     0.000012491862     
30.440000534058     0.849978029728     0.000012342831     
30.545000076294     0.844676971436     0.000012201443     
30.649999618530     0.839541971684     0.000012056233     
30.754999160767     0.834406018257     0.000011907202     
30.860000610352     0.828939974308     0.000011758171     
30.965000152588     0.823638975620     0.000011616782     
31.069999694824     0.818503022194     0.000011479215     
31.174999237061     0.813202023506     0.000011334005     
31.280000686646     0.807901024818     0.000011192617     
31.385000228882     0.802766025066     0.000011051229     
31.489999771118     0.797465026379     0.000010909840     
31.594999313354     0.792164027691     0.000010768452     
31.700000762939     0.786863029003     0.000010627063     
31.805000305176     0.781561970711     0.000010485675     
31.909999847412     0.776426970959     0.000010348107     
32.014999389648     0.771125972271     0.000010214362     
32.119998931885     0.765824973583     0.000010076794     
32.224998474121     0.760523974895     0.000009943049     
32.330001831055     0.755222976208     0.000009805481     
32.435001373291     0.750087976456     0.000009671736     
32.540000915527     0.744786977768     0.000009537990     
32.645000457764     0.739485979080     0.000009400423     
32.750000000000     0.734184980392     0.000009266677     
32.854999542236     0.728883981705     0.000009136752     
32.959999084473     0.723748028278     0.000009003006     
33.064998626709     0.718447029591     0.000008873082     
33.169998168945     0.713145971298     0.000008739336     
33.275001525879     0.707845985889     0.000008609411     
33.380001068115     0.702544987202     0.000008479487     
33.485000610352     0.697243988514     0.000008349562     
33.590000152588     0.692107975483     0.000008219638     
33.694999694824     0.686806976795     0.000008089713     
33.799999237061     0.681505978107     0.000007959789     
33.904998779297     0.676370978355     0.000007833686     
34.009998321533     0.671069979668     0.000007703761     
34.115001678467     0.665768980980     0.000007577658     
34.220001220703     0.660467982292     0.000007451554     
34.325000762939     0.655332982540     0.000007325451     
34.430000305176     0.650031983852     0.000007199348     
34.534999847412     0.644730985165     0.000007073245     
34.639999389648     0.639429986477     0.000006943320     
34.744998931885     0.634128987789     0.000006821038     
34.849998474121     0.628827989101     0.000006698756     
34.955001831055     0.623692989349     0.000006568832     
35.060001373291     0.618391990662     0.000006446550     
35.165000915527     0.613090991974     0.000006320447     
35.270000457764     0.607789993286     0.000006198165     
