
Cycle 1
Physical Cycle 1
Step 1

Time (s),          Potential (V),         Current (A)
0.104999996722     0.002641000086     -0.000000492864     
0.209999993443     0.007922000252     -0.000000454657     
0.314999997616     0.013203999959     -0.000000424092     
0.419999986887     0.018485000357     -0.000000393527     
0.449999988079     0.028552999720     -0.000000324286     
0.555000007153     0.033833999187     -0.000000299666     
0.660000026226     0.039115998894     -0.000000276201     
0.764999985695     0.044231999665     -0.000000253889     
0.795000016689     0.054464999586     -0.000000212920     
0.899999976158     0.059746000916     -0.000000196134     
1.004999995232     0.065027996898     -0.000000179053     
1.110000014305     0.070308998227     -0.000000162435     
1.215000033379     0.075590997934     -0.000000148131     
1.320000052452     0.080871999264     -0.000000134374     
1.424999952316     0.085988000035     -0.000000120869     
1.529999971390     0.091269999743     -0.000000108501     
1.634999990463     0.096551001072     -0.000000096931     
1.740000009537     0.101833000779     -0.000000084731     
1.845000028610     0.107114002109     -0.000000074381     
1.950000047684     0.112396001816     -0.000000064410     
2.055000066757     0.117677003145     -0.000000053388     
2.160000085831     0.122792996466     -0.000000044090     
2.265000104904     0.128075003624     -0.000000034456     
2.369999885559     0.133356004953     -0.000000023391     
2.474999904633     0.138638004661     -0.000000013252     
2.579999923706     0.143919005990     -0.000000003871     
2.684999942780     0.149036005139     0.000000007489     
2.775000095367     0.155966997147     0.000000021637     
2.880000114441     0.161083996296     0.000000033426     
2.984999895096     0.166364997625     0.000000044217     
3.089999914169     0.171481996775     0.000000056934     
3.194999933243     0.176762998104     0.000000070382     
3.299999952316     0.181878998876     0.000000083106     
3.404999971390     0.188646003604     0.000000103242     
3.509999990463     0.193928003311     0.000000117420     
3.615000009537     0.199209004641     0.000000131429     
3.720000028610     0.204491004348     0.000000147290     
3.825000047684     0.209772005677     0.000000163655     
3.930000066757     0.214888006449     0.000000178591     
4.034999847412     0.220170006156     0.000000194914     
4.139999866486     0.225450992584     0.000000212415     
4.244999885559     0.230733007193     0.000000228318     
4.349999904633     0.236013993621     0.000000245441     
4.454999923706     0.241295993328     0.000000263027     
4.559999942780     0.246411994100     0.000000280444     
4.664999961853     0.251859009266     0.000000297441     
4.769999980927     0.256974995136     0.000000316246     
4.875000000000     0.262255996466     0.000000334168     
4.980000019073     0.267538011074     0.000000352680     
5.085000038147     0.272653996944     0.000000372369     
5.190000057220     0.277936011553     0.000000391343     
5.295000076294     0.283217012882     0.000000410443     
5.400000095367     0.288498014212     0.000000431394     
5.505000114441     0.293779999018     0.000000451840     
5.610000133514     0.299061000347     0.000000471740     
5.715000152588     0.304342985153     0.000000492986     
5.820000171661     0.309623986483     0.000000515115     
5.925000190735     0.314740985632     0.000000535267     
6.030000209808     0.320021986961     0.000000557059     
6.135000228882     0.325302988291     0.000000579147     
6.239999771118     0.330419987440     0.000000600056     
6.344999790192     0.335700988770     0.000000621175     
6.449999809265     0.340983003378     0.000000642505     
6.554999828339     0.346264004707     0.000000663078     
6.659999847412     0.351545989513     0.000000683819     
6.764999866486     0.356826990843     0.000000704265     
6.869999885559     0.361943006516     0.000000723702     
6.974999904633     0.367390006781     0.000000742634     
7.079999923706     0.372505992651     0.000000762323     
7.184999942780     0.377788007259     0.000000779656     
7.289999961853     0.382903993130     0.000000796569     
7.394999980927     0.388350993395     0.000000814196     
7.500000000000     0.393467009068     0.000000830688     
7.605000019073     0.398748010397     0.000000845413     
7.710000038147     0.404029995203     0.000000861442     
7.815000057220     0.409310996532     0.000000875998     
7.920000076294     0.414593011141     0.000000889124     
8.024999618530     0.419874012470     0.000000902587     
8.130000114441     0.425155997276     0.000000915839     
8.234999656677     0.430436998606     0.000000927198     
8.340000152588     0.435553014278     0.000000939778     
8.444999694824     0.440834999084     0.000000951684     
8.550000190735     0.446116000414     0.000000962117     
8.654999732971     0.451397985220     0.000000972677     
8.760000228882     0.456678986549     0.000000984288     
8.864999771118     0.461961001158     0.000000994049     
8.970000267029     0.467242002487     0.000001004314     
9.074999809265     0.472359001637     0.000001015295     
9.180000305176     0.477640002966     0.000001025518     
9.284999847412     0.482921004295     0.000001035615     
9.369999885559     0.490844011307     0.000001058257     
9.475000381470     0.495959997177     0.000001066720     
9.579999923706     0.501241028309     0.000001077107     
9.685000419617     0.506523013115     0.000001089032     
9.789999961853     0.511803984642     0.000001099803     
9.895000457764     0.517086029053     0.000001111343     
10.000000000000     0.522367000580     0.000001124423     
10.104999542236     0.527648985386     0.000001137117     
10.210000038147     0.532764971256     0.000001149812     
10.314999580383     0.538046002388     0.000001164045     
10.420000076294     0.543327987194     0.000001178278     
10.524999618530     0.548609018326     0.000001191742     
10.630000114441     0.553891003132     0.000001206360     
10.734999656677     0.559171974659     0.000001222132     
10.840000152588     0.564454019070     0.000001236749     
10.944999694824     0.569734990597     0.000001252906     
11.050000190735     0.575016021729     0.000001270217     
11.154999732971     0.580298006535     0.000001286373     
11.260000228882     0.585578978062     0.000001303299     
11.364999771118     0.590861022472     0.000001320995     
11.470000267029     0.595977008343     0.000001337921     
11.574999809265     0.601258993149     0.000001355616     
11.680000305176     0.606540024281     0.000001375235     
11.784999847412     0.611820995808     0.000001392930     
11.890000343323     0.617102980614     0.000001411395     
11.994999885559     0.622384011745     0.000001430629     
12.100000381470     0.627665996552     0.000001449478     
12.204999923706     0.632947027683     0.000001468327     
12.310000419617     0.638064026833     0.000001487946     
12.414999961853     0.643344998360     0.000001506795     
12.520000457764     0.648626029491     0.000001525645     
12.625000000000     0.653908014297     0.000001545264     
12.729999542236     0.659188985825     0.000001564498     
12.835000038147     0.664470970631     0.000001582578     
12.939999580383     0.669752001762     0.000001601812     
13.045000076294     0.675033986568     0.000001621430     
13.149999618530     0.680315017700     0.000001640280     
13.255000114441     0.685597002506     0.000001659129     
13.359999656677     0.690877974033     0.000001678748     
13.465000152588     0.696159005165     0.000001696828     
13.569999694824     0.701440989971     0.000001715677     
13.675000190735     0.706556975842     0.000001734911     
13.779999732971     0.711839020252     0.000001752991     
13.885000228882     0.717119991779     0.000001770687     
13.989999771118     0.722401976585     0.000001789921     
14.095000267029     0.727683007717     0.000001807616     
14.199999809265     0.732963979244     0.000001826081     
14.305000305176     0.738246023655     0.000001846084     
14.409999847412     0.743526995182     0.000001864164     
14.515000343323     0.748643994331     0.000001880705     
14.619999885559     0.753925025463     0.000001899170     
14.725000381470     0.759371995926     0.000001915327     
14.829999923706     0.764487981796     0.000001930714     
14.935000419617     0.769769012928     0.000001948409     
15.039999961853     0.775050997734     0.000001964951     
15.145000457764     0.780332028866     0.000001979568     
15.250000000000     0.785614013672     0.000001996494     
15.354999542236     0.790894985199     0.000002013420     
15.460000038147     0.796177029610     0.000002027269     
15.564999580383     0.801458001137     0.000002042271     
15.670000076294     0.806738972664     0.000002059197     
15.774999618530     0.812021017075     0.000002074969     
15.880000114441     0.817137002945     0.000002092665     
15.984999656677     0.822418987751     0.000002110360     
16.090000152588     0.827700018883     0.000002128055     
16.194999694824     0.832982003689     0.000002145366     
16.299999237061     0.838262975216     0.000002164600     
16.405000686646     0.843544006348     0.000002181911     
16.510000228882     0.848825991154     0.000002199606     
16.614999771118     0.853941977024     0.000002219225     
16.719999313354     0.859224021435     0.000002237689     
16.825000762939     0.864669978619     0.000002256154     
16.930000305176     0.869786977768     0.000002276542     
17.034999847412     0.875232994556     0.000002296161     
17.139999389648     0.880514979362     0.000002315010     
17.245000839233     0.885631024837     0.000002335783     
17.350000381470     0.890911996365     0.000002356556     
17.454999923706     0.896193981171     0.000002375405     
17.559999465942     0.901475012302     0.000002396947     
17.665000915527     0.906756997108     0.000002418874     
17.770000457764     0.911872982979     0.000002439647     
17.875000000000     0.917155027390     0.000002461574     
17.979999542236     0.922435998917     0.000002484655     
18.084999084473     0.927716970444     0.000002506197     
18.190000534058     0.932999014854     0.000002528508     
18.295000076294     0.938279986382     0.000002552358     
18.399999618530     0.943561971188     0.000002575824     
18.504999160767     0.948843002319     0.000002600059     
18.610000610352     0.954124987125     0.000002625063     
18.715000152588     0.959406018257     0.000002649683     
18.819999694824     0.964522004128     0.000002675072     
18.924999237061     0.969803988934     0.000002703538     
19.030000686646     0.975085020065     0.000002728927     
19.135000228882     0.980367004871     0.000002755470     
19.239999771118     0.985647976398     0.000002785090     
19.344999313354     0.990930020809     0.000002813557     
19.450000762939     0.996210992336     0.000002842793     
19.555000305176     1.001492023468     0.000002873182     
19.659999847412     1.006773948669     0.000002905496     
19.764999389648     1.011890053749     0.000002937039     
19.870000839233     1.017171978951     0.000002968968     
19.975000381470     1.022452950478     0.000003003974     
20.079999923706     1.027734994888     0.000003038595     
20.184999465942     1.033015966415     0.000003076294     
20.290000915527     1.038297057152     0.000003115147     
20.395000457764     1.043413996696     0.000003154000     
20.500000000000     1.048694968224     0.000003193622     
20.604999542236     1.053977012634     0.000003235167     
20.709999084473     1.059257984161     0.000003277867     
20.815000534058     1.064540028572     0.000003322105     
20.920000076294     1.069821000099     0.000003369806     
21.024999618530     1.075101971626     0.000003417121     
21.129999160767     1.080219030380     0.000003466360     
21.235000610352     1.085664987564     0.000003519831     
21.340000152588     1.090947031975     0.000003573302     
21.444999694824     1.096063017845     0.000003628696     
21.549999237061     1.101344943047     0.000003686013     
21.655000686646     1.106626033783     0.000003746024     
21.760000228882     1.111907005310     0.000003806803     
21.864999771118     1.117189049721     0.000003871814     
21.969999313354     1.122470021248     0.000003939518     
22.075000762939     1.127751946449     0.000004006453     
22.180000305176     1.133033037186     0.000004078388     
22.284999847412     1.138149976730     0.000004152247     
22.389999389648     1.143430948257     0.000004226875     
22.495000839233     1.148712992668     0.000004305734     
22.600000381470     1.153993964195     0.000004386902     
22.704999923706     1.159275054932     0.000004471147     
22.809999465942     1.164556980133     0.000004557700     
22.915000915527     1.169672966003     0.000004647331     
23.020000457764     1.174955010414     0.000004739270     
23.125000000000     1.180235981941     0.000004834671     
23.229999542236     1.185518026352     0.000004933919     
23.334999084473     1.190798997879     0.000005034705     
23.440000534058     1.196079969406     0.000005140108     
23.545000076294     1.198060989380     0.000005072404     
23.649999618530     1.192945003510     0.000004723113     
23.754999160767     1.187827944756     0.000004410368     
23.860000610352     1.182546973228     0.000004128781     
23.965000152588     1.177265048027     0.000003870276     
24.069999694824     1.171983957291     0.000003631004     
24.174999237061     1.166702032089     0.000003410966     
24.280000686646     1.161586046219     0.000003207855     
24.385000228882     1.156304955482     0.000003017822     
24.489999771118     1.151023030281     0.000002841639     
24.594999313354     1.145742058754     0.000002677380     
24.700000762939     1.140460014343     0.000002523123     
24.805000305176     1.135344028473     0.000002379637     
24.909999847412     1.130061984062     0.000002245383     
25.014999389648     1.124781012535     0.000002118823     
25.120000839233     1.119500041008     0.000002000341     
25.225000381470     1.114217996597     0.000001890707     
25.329999923706     1.108937025070     0.000001785689     
25.434999465942     1.103654980659     0.000001687980     
25.540000915527     1.098374009132     0.000001598734     
25.645000457764     1.093256950378     0.000001512181     
25.750000000000     1.087975978851     0.000001430629     
25.854999542236     1.082695007324     0.000001355616     
25.959999084473     1.077412962914     0.000001285219     
26.065000534058     1.072296977043     0.000001217900     
26.170000076294     1.066849946976     0.000001155966     
26.274999618530     1.061568975449     0.000001098264     
26.379999160767     1.056287050247     0.000001043640     
26.485000610352     1.051170945168     0.000000992477     
26.590000152588     1.045889973640     0.000000945161     
26.694999694824     1.040608048439     0.000000900923     
26.799999237061     1.035326957703     0.000000857839     
26.905000686646     1.030045032501     0.000000818986     
27.010000228882     1.024763941765     0.000000782056     
27.114999771118     1.019482016563     0.000000748205     
27.219999313354     1.014366030693     0.000000716661     
27.325000762939     1.008919000626     0.000000686271     
27.430000305176     1.003803014755     0.000000657805     
27.534999847412     0.998356997967     0.000000632416     
27.639999389648     0.993239998817     0.000000607027     
27.745000839233     0.987959027290     0.000000584330     
27.850000381470     0.982676982880     0.000000563558     
27.954999923706     0.977396011353     0.000000543170     
28.059999465942     0.972280025482     0.000000523551     
28.165000915527     0.966997981071     0.000000506625     
28.270000457764     0.961717009544     0.000000489699     
28.375000000000     0.956435024738     0.000000472773     
28.479999542236     0.951153993607     0.000000458155     
28.584999084473     0.945872008801     0.000000444691     
28.690000534058     0.940590977669     0.000000430458     
28.795000076294     0.935308992863     0.000000418148     
28.899999618530     0.930028021336     0.000000406608     
29.004999160767     0.924746990204     0.000000394298     
29.110000610352     0.919629991055     0.000000383912     
29.215000152588     0.914349019527     0.000000373910     
29.319999694824     0.909066975117     0.000000363139     
29.424999237061     0.903786003590     0.000000352752     
29.530000686646     0.898504018784     0.000000343905     
29.555000305176     0.887942016125     0.000000326511     
29.659999847412     0.882825016975     0.000000318728     
29.764999389648     0.877543985844     0.000000310861     
29.870000839233     0.872262001038     0.000000302657     
29.975000381470     0.866981029510     0.000000294243     
30.079999923706     0.861698985100     0.000000287344     
30.184999465942     0.856418013573     0.000000279476     
30.290000915527     0.851136982441     0.000000271946     
30.395000457764     0.846019983292     0.000000266014     
30.500000000000     0.840739011765     0.000000258693     
30.604999542236     0.835457026958     0.000000251121     
30.709999084473     0.830175995827     0.000000245273     
30.815000534058     0.824894011021     0.000000239088     
30.920000076294     0.819612979889     0.000000231347     
31.024999618530     0.814332008362     0.000000225794     
31.129999160767     0.809050023556     0.000000219862     
31.235000610352     0.803768992424     0.000000212962     
31.340000152588     0.798487007618     0.000000207577     
31.444999694824     0.793371021748     0.000000201940     
31.549999237061     0.788088977337     0.000000195166     
31.655000686646     0.782808005810     0.000000190076     
31.760000228882     0.777526974678     0.000000184775     
31.864999771118     0.772244989872     0.000000178254     
31.969999313354     0.766964018345     0.000000173290     
32.075000762939     0.761681973934     0.000000168451     
32.180000305176     0.756401002407     0.000000162225     
32.284999847412     0.751284003258     0.000000156714     
32.389999389648     0.746002972126     0.000000152380     
32.494998931885     0.740722000599     0.000000146448     
32.599998474121     0.735440015793     0.000000140811     
32.705001831055     0.730158984661     0.000000136940     
32.810001373291     0.725041985512     0.000000131597     
32.915000915527     0.719596028328     0.000000125539     
33.020000457764     0.714313983917     0.000000121669     
33.125000000000     0.709033012390     0.000000116873     
33.229999542236     0.703916013241     0.000000110983     
33.334999084473     0.698634982109     0.000000106692     
33.439998626709     0.693354010582     0.000000103031     
33.544998168945     0.688072025776     0.000000096552     
33.650001525879     0.682790994644     0.000000092472     
33.755001068115     0.677509009838     0.000000088475     
33.860000610352     0.672227978706     0.000000083174     
33.965000152588     0.667110979557     0.000000078504     
34.069999694824     0.661830008030     0.000000075054     
34.174999237061     0.656548976898     0.000000069375     
34.279998779297     0.651102006435     0.000000065084     
34.384998321533     0.645820975304     0.000000061087     
34.490001678467     0.640703976154     0.000000056375     
34.595001220703     0.635423004627     0.000000052042     
34.700000762939     0.630141019821     0.000000048928     
34.805000305176     0.624859988689     0.000000044006     
34.909999847412     0.619579017162     0.000000039547     
35.014999389648     0.614462018013     0.000000036433     
35.119998931885     0.609180986881     0.000000032184     
35.224998474121     0.603899002075     0.000000026841     
