
Cycle 1
Physical Cycle 1
Step 1

Time (s),          Potential (V),         Current (A)
0.104999996722     0.001818999997     0.000000933920     
0.209999993443     0.007110000122     0.000001227438     
0.314999997616     0.012236000039     0.000001479025     
0.419999986887     0.017526999116     0.000001715364     
0.449999988079     0.027448000386     0.000002080749     
0.555000007153     0.032738998532     0.000002322991     
0.660000026226     0.038031000644     0.000002561010     
0.764999985695     0.043156001717     0.000002798262     
0.870000004768     0.048448000103     0.000003031290     
0.975000023842     0.053739000112     0.000003266238     
1.080000042915     0.059030000120     0.000003500802     
1.184999942780     0.064320996404     0.000003739973     
1.289999961853     0.069447003305     0.000003971466     
1.394999980927     0.074738003314     0.000004202191     
1.500000000000     0.080030001700     0.000004429077     
1.605000019073     0.085321001709     0.000004651357     
1.710000038147     0.090612001717     0.000004877859     
1.815000057220     0.095738001168     0.000005099754     
1.919999957085     0.101029001176     0.000005322417     
2.025000095367     0.106320001185     0.000005538554     
2.130000114441     0.111446000636     0.000005753155     
2.234999895096     0.116737000644     0.000005965837     
2.339999914169     0.122028999031     0.000006175448     
2.444999933243     0.127155005932     0.000006385826     
2.549999952316     0.132611006498     0.000006593517     
2.654999971390     0.137737005949     0.000006798137     
2.759999990463     0.143028005958     0.000006995846     
2.865000009537     0.148319005966     0.000007191252     
2.970000028610     0.153445005417     0.000007390881     
3.075000047684     0.158736005425     0.000007584752     
3.180000066757     0.164028003812     0.000007779006     
3.285000085831     0.169319003820     0.000007970573     
3.390000104904     0.174445003271     0.000008156382     
3.494999885559     0.179736003280     0.000008340655     
3.599999904633     0.185027003288     0.000008521473     
3.704999923706     0.190318003297     0.000008704594     
3.809999942780     0.195444002748     0.000008887331     
3.914999961853     0.200736001134     0.000009065846     
4.019999980927     0.206027001143     0.000009241673     
4.125000000000     0.211318001151     0.000009420571     
4.184999942780     0.220412001014     0.000009850001     
4.289999961853     0.225703001022     0.000010017726     
4.394999980927     0.230994999409     0.000010189262     
4.500000000000     0.236120998859     0.000010360799     
4.605000019073     0.241411998868     0.000010536147     
4.710000038147     0.246702998877     0.000010703871     
4.815000057220     0.251994013786     0.000010879220     
4.920000076294     0.257284998894     0.000011054568     
5.025000095367     0.262576997280     0.000011222292     
5.130000114441     0.267702013254     0.000011393829     
5.235000133514     0.272994011641     0.000011561553     
5.340000152588     0.278284996748     0.000011729278     
5.445000171661     0.283576011658     0.000011897002     
5.550000190735     0.288702011108     0.000012060915     
5.655000209808     0.294158995152     0.000012228639     
5.760000228882     0.299284011126     0.000012396364     
5.864999771118     0.304576009512     0.000012560276     
5.969999790192     0.310032010078     0.000012728001     
6.074999809265     0.315158009529     0.000012895725     
6.179999828339     0.320448994637     0.000013067262     
6.284999847412     0.325740009546     0.000013231174     
6.389999866486     0.331032007933     0.000013398899     
6.494999885559     0.336158007383     0.000013566623     
6.599999904633     0.341448992491     0.000013745784     
6.704999923706     0.346740007401     0.000013913508     
6.809999942780     0.352030992508     0.000014085044     
6.914999961853     0.357156991959     0.000014252769     
7.019999980927     0.362614005804     0.000014431929     
7.125000000000     0.367740005255     0.000014611089     
7.230000019073     0.373030990362     0.000014790250     
7.335000038147     0.378322005272     0.000014969410     
7.440000057220     0.383612990379     0.000015148570     
7.545000076294     0.388904005289     0.000015323918     
7.650000095367     0.394196003675     0.000015506890     
7.755000114441     0.399320989847     0.000015689862     
7.860000133514     0.404612988234     0.000015872834     
7.965000152588     0.409904003143     0.000016048183     
8.069999694824     0.415194988251     0.000016223532     
8.175000190735     0.420486003160     0.000016398881     
8.279999732971     0.425778001547     0.000016578040     
8.385000228882     0.431068986654     0.000016761012     
8.489999771118     0.436194986105     0.000016947795     
8.595000267029     0.441486001015     0.000017134580     
8.699999809265     0.446776986122     0.000017317552     
8.805000305176     0.452068001032     0.000017500524     
8.909999847412     0.457358986139     0.000017675873     
9.015000343323     0.462651014328     0.000017862658     
9.119999885559     0.467777013779     0.000018053253     
9.225000381470     0.473067998886     0.000018243849     
9.329999923706     0.478359013796     0.000018430634     
9.435000419617     0.483649998903     0.000018621229     
9.539999961853     0.488941013813     0.000018815637     
9.645000457764     0.494067013264     0.000019013856     
9.750000000000     0.499359011650     0.000019212077     
9.854999542236     0.504649996758     0.000019406485     
9.960000038147     0.509940981865     0.000019608517     
10.064999580383     0.515232026577     0.000019818171     
10.170000076294     0.520523011684     0.000020024016     
10.274999618530     0.525815010071     0.000020237483     
10.380000114441     0.530939996243     0.000020450951     
10.484999656677     0.536231994629     0.000020664418     
10.590000152588     0.541522979736     0.000020881698     
10.694999694824     0.546814024448     0.000021095166     
10.800000190735     0.552105009556     0.000021316257     
10.904999732971     0.557231009007     0.000021544973     
11.010000228882     0.562521994114     0.000021773687     
11.114999771118     0.567813992500     0.000022010026     
11.220000267029     0.573104977608     0.000022238741     
11.324999809265     0.578396022320     0.000022467457     
11.430000305176     0.583687007427     0.000022699984     
11.534999847412     0.588977992535     0.000022940136     
11.640000343323     0.594103991985     0.000023176473     
11.744999885559     0.599395990372     0.000023416625     
11.850000381470     0.604686975479     0.000023652963     
11.954999923706     0.609978020191     0.000023896926     
12.060000419617     0.615269005299     0.000024137076     
12.164999961853     0.620559990406     0.000024384852     
12.270000457764     0.625685989857     0.000024621191     
12.375000000000     0.630977988243     0.000024861341     
12.479999542236     0.636268973351     0.000025105304     
12.585000038147     0.641560018063     0.000025345456     
12.689999580383     0.646851003170     0.000025589419     
12.795000076294     0.652141988277     0.000025837195     
12.899999618530     0.657433986664     0.000026077345     
13.005000114441     0.662558972836     0.000026317495     
13.109999656677     0.667850971222     0.000026565271     
13.215000152588     0.673307001591     0.000026809234     
13.319999694824     0.678433001041     0.000027049384     
13.425000190735     0.683723986149     0.000027289536     
13.529999732971     0.689015984535     0.000027529686     
13.635000228882     0.694307029247     0.000027766026     
13.739999771118     0.699598014355     0.000028006176     
13.845000267029     0.704888999462     0.000028246326     
13.949999809265     0.710014998913     0.000028471230     
14.055000305176     0.715305984020     0.000028711382     
14.159999847412     0.720597028732     0.000028943909     
14.265000343323     0.725889027119     0.000029176435     
14.369999885559     0.731180012226     0.000029401339     
14.475000381470     0.736306011677     0.000029633866     
14.579999923706     0.741596996784     0.000029866393     
14.685000419617     0.746887981892     0.000030095109     
14.789999961853     0.752179026604     0.000030320012     
14.895000457764     0.757471024990     0.000030552539     
15.000000000000     0.762762010098     0.000030788877     
15.104999542236     0.767888009548     0.000031040465     
15.210000038147     0.773178994656     0.000031284428     
15.314999580383     0.778469979763     0.000031524578     
15.420000076294     0.783761024475     0.000031749481     
15.524999618530     0.789053022861     0.000031974385     
15.630000114441     0.794344007969     0.000032191663     
15.734999656677     0.799470007420     0.000032420379     
15.840000152588     0.804760992527     0.000032664342     
15.944999694824     0.810051977634     0.000032908305     
16.049999237061     0.815343022346     0.000033156080     
16.155000686646     0.820635020733     0.000033407669     
16.260000228882     0.825760006905     0.000033659253     
16.364999771118     0.831052005291     0.000033910841     
16.469999313354     0.836342990398     0.000034170051     
16.575000762939     0.841633975506     0.000034429260     
16.680000305176     0.846759974957     0.000034696095     
16.784999847412     0.852216005325     0.000034962930     
16.889999389648     0.857508003712     0.000035229765     
16.995000839233     0.862634003162     0.000035488974     
17.100000381470     0.867924988270     0.000035759622     
17.204999923706     0.873381018639     0.000036022644     
17.309999465942     0.878507018089     0.000036281854     
17.415000915527     0.883633017540     0.000036529629     
17.520000457764     0.889090001583     0.000036785030     
17.625000000000     0.894380986691     0.000037055674     
17.729999542236     0.899506986141     0.000037322508     
17.834999084473     0.904797971249     0.000037585531     
17.940000534058     0.910089015961     0.000037863800     
18.045000076294     0.915380001068     0.000038130634     
18.149999618530     0.920671999454     0.000038382223     
18.254999160767     0.925796985626     0.000038649057     
18.360000610352     0.931088984013     0.000038919701     
18.465000152588     0.936380028725     0.000039178914     
18.569999694824     0.941671013832     0.000039453371     
18.674999237061     0.946961998940     0.000039716393     
18.780000686646     0.952253997326     0.000039979415     
18.885000228882     0.957544982433     0.000040242438     
18.989999771118     0.962670981884     0.000040505463     
19.094999313354     0.967962026596     0.000040787545     
19.200000762939     0.973253011703     0.000041065814     
19.305000305176     0.978543996811     0.000041344083     
19.409999847412     0.983834981918     0.000041637602     
19.514999389648     0.988960981369     0.000041927309     
19.620000839233     0.994252979755     0.000042228450     
19.725000381470     0.999544024467     0.000042480035     
19.829999923706     1.004835009575     0.000042777367     
19.934999465942     1.009961009026     0.000043055636     
20.040000915527     1.015251994133     0.000043379649     
20.145000457764     1.020709037781     0.000043703662     
20.250000000000     1.025835037231     0.000044069606     
20.354999542236     1.031126022339     0.000044443175     
20.459999084473     1.036417007446     0.000044763376     
20.565000534058     1.041707992554     0.000045091201     
20.670000076294     1.046833992004     0.000045430465     
20.774999618530     1.052124977112     0.000045743040     
20.879999160767     1.057582020760     0.000046082299     
20.985000610352     1.062708020210     0.000046448244     
21.090000152588     1.067999005318     0.000046829438     
21.194999694824     1.073289990425     0.000047229689     
21.299999237061     1.078580975533     0.000047557514     
21.405000686646     1.083873033524     0.000047927271     
21.510000228882     1.088997960091     0.000048316087     
21.614999771118     1.094290018082     0.000048693466     
21.719999313354     1.099581003189     0.000049063223     
21.825000762939     1.104871988297     0.000049421542     
21.930000305176     1.110162973404     0.000049817983     
22.034999847412     1.115453958511     0.000050206800     
22.139999389648     1.120579957962     0.000050587991     
22.245000839233     1.125872015953     0.000050988241     
22.350000381470     1.131163001060     0.000051434236     
22.454999923706     1.136453986168     0.000051842111     
22.559999465942     1.141579985619     0.000052280484     
22.665000915527     1.147035956383     0.000052764597     
22.770000457764     1.152328014374     0.000053263957     
22.875000000000     1.157454013824     0.000053668024     
22.979999542236     1.162744998932     0.000054102580     
23.084999084473     1.168035984039     0.000054567634     
23.190000534058     1.173326969147     0.000055006007     
23.295000076294     1.178452968597     0.000055452001     
23.399999618530     1.183743953705     0.000055985671     
23.504999160767     1.189035058022     0.000056446912     
23.610000610352     1.194161057472     0.000056923400     
23.715000152588     1.197633981705     0.000057033947     
23.819999694824     1.193168997765     0.000055787448     
23.924999237061     1.188042998314     0.000054582881     
24.030000686646     1.182752013206     0.000053389751     
24.135000228882     1.177461028099     0.000052257612     
24.239999771118     1.172335028648     0.000051201710     
24.344999313354     1.166877985001     0.000050302096     
24.450000762939     1.161586999893     0.000049436789     
24.555000305176     1.156461000443     0.000048640100     
24.659999847412     1.151170015335     0.000047877715     
24.764999389648     1.145879030228     0.000047122954     
24.870000839233     1.140588045120     0.000046345322     
24.975000381470     1.135296940804     0.000045586752     
25.079999923706     1.130170941353     0.000044831992     
25.184999465942     1.124879002571     0.000044103916     
25.290000915527     1.119588017464     0.000043471136     
25.395000457764     1.114462018013     0.000042769741     
25.500000000000     1.109171032906     0.000042106469     
25.604999542236     1.103880047798     0.000041492749     
25.709999084473     1.098588943481     0.000040871408     
25.815000534058     1.093297958374     0.000040284373     
25.920000076294     1.088006019592     0.000039716393     
26.024999618530     1.082880020142     0.000039144605     
26.129999160767     1.077424049377     0.000038549948     
26.235000610352     1.072298049927     0.000037985785     
26.340000152588     1.067006945610     0.000037410184     
26.444999694824     1.061715960503     0.000036868889     
26.549999237061     1.056424021721     0.000036358095     
26.655000686646     1.051298022270     0.000035866356     
26.760000228882     1.046007037163     0.000035366993     
26.864999771118     1.040716052055     0.000034840949     
26.969999313354     1.035424947739     0.000034372082     
27.075000762939     1.030133962631     0.000033887969     
27.180000305176     1.024842023849     0.000033419103     
27.284999847412     1.019716978073     0.000032954049     
27.389999389648     1.014260053635     0.000032530927     
27.495000839233     1.009134054184     0.000032138298     
27.600000381470     1.003842949867     0.000031703737     
27.704999923706     0.998552024364     0.000031272994     
27.809999465942     0.993260025978     0.000030865114     
27.915000915527     0.988134980202     0.000030411498     
28.020000457764     0.982842981815     0.000029980751     
28.125000000000     0.977551996708     0.000029591934     
28.229999542236     0.972261011600     0.000029237426     
28.334999084473     0.966970026493     0.000028810491     
28.440000534058     0.961678981781     0.000028452170     
28.545000076294     0.956386983395     0.000028086228     
28.649999618530     0.951260983944     0.000027697411     
28.754999160767     0.945969998837     0.000027339091     
28.860000610352     0.940679013729     0.000026999829     
28.965000152588     0.935388028622     0.000026645321     
29.069999694824     0.930096983910     0.000026271753     
29.174999237061     0.924804985523     0.000025962987     
29.280000686646     0.919678986073     0.000025669469     
29.385000228882     0.914388000965     0.000025318774     
29.489999771118     0.909097015858     0.000024990948     
29.594999313354     0.903805971146     0.000024689805     
29.700000762939     0.898514986038     0.000024369605     
29.805000305176     0.893388986588     0.000024034156     
29.909999847412     0.888098001480     0.000023706330     
30.014999389648     0.882806003094     0.000023374692     
30.120000839233     0.877515017986     0.000023084987     
30.225000381470     0.872223973274     0.000022776221     
30.329999923706     0.866932988167     0.000022467457     
30.434999465942     0.861806988716     0.000022151067     
30.540000915527     0.856516003609     0.000021830867     
30.645000457764     0.851224005222     0.000021537347     
30.750000000000     0.845933020115     0.000021220960     
30.854999542236     0.840641975403     0.000020916004     
30.959999084473     0.835350990295     0.000020607240     
31.065000534058     0.830060005188     0.000020298474     
31.170000076294     0.824934005737     0.000019997333     
31.274999618530     0.819642007351     0.000019722875     
31.379999160767     0.814351022243     0.000019425544     
31.485000610352     0.809059977531     0.000019132027     
31.590000152588     0.803933978081     0.000018842322     
31.694999694824     0.798642992973     0.000018564049     
31.799999237061     0.793352007866     0.000018289593     
31.905000686646     0.788060009480     0.000018011322     
32.009998321533     0.782769024372     0.000017717804     
32.115001678467     0.777477979660     0.000017450970     
32.220001220703     0.772186994553     0.000017180322     
32.325000762939     0.767060995102     0.000016909677     
32.430000305176     0.761770009995     0.000016642844     
32.534999847412     0.756479024887     0.000016372196     
32.639999389648     0.751187026501     0.000016101551     
32.744998931885     0.745895981789     0.000015834716     
32.849998474121     0.740769982338     0.000015579317     
32.955001831055     0.735314011574     0.000015323918     
33.060001373291     0.730188012123     0.000015072332     
33.165000915527     0.724897027016     0.000014809309     
33.270000457764     0.719605028629     0.000014557722     
33.375000000000     0.714313983917     0.000014302324     
33.479999542236     0.709022998810     0.000014050737     
33.584999084473     0.703896999359     0.000013795338     
33.689998626709     0.698606014252     0.000013547564     
33.794998168945     0.693315029144     0.000013295977     
33.900001525879     0.688022971153     0.000013040578     
34.005001068115     0.682731986046     0.000012792804     
34.110000610352     0.677441000938     0.000012552653     
34.215000152588     0.672150015831     0.000012308690     
34.319999694824     0.667024016380     0.000012068539     
34.424999237061     0.661566972733     0.000011832200     
34.529998779297     0.656440973282     0.000011595861     
34.634998321533     0.651149988174     0.000011351898     
34.740001678467     0.645859003067     0.000011119371     
34.845001220703     0.640568017960     0.000010883032     
34.950000762939     0.635442018509     0.000010650504     
35.055000305176     0.629984974861     0.000010421789     
35.159999847412     0.624859988689     0.000010185450     
35.264999389648     0.619567990303     0.000009952923     
35.369998931885     0.614277005196     0.000009720396     
35.474998474121     0.608986020088     0.000009495493     
