
Cycle 1
Physical Cycle 1
Step 1

Time (s),          Potential (V),         Current (A)
0.104999996722     0.002479000017     -0.000005310353     
0.209999993443     0.007931999862     -0.000004796200     
0.314999997616     0.013055000454     -0.000004358787     
0.419999986887     0.018342999741     -0.000003971254     
0.524999976158     0.023631000891     -0.000003629764     
0.629999995232     0.028753999621     -0.000003322807     
0.735000014305     0.034207001328     -0.000003038872     
0.839999973774     0.039329998195     -0.000002785633     
0.879999995232     0.049079999328     -0.000002283541     
0.985000014305     0.054368000478     -0.000002074159     
1.090000033379     0.059491001070     -0.000001877115     
1.195000052452     0.064778998494     -0.000001688941     
1.299999952316     0.070067003369     -0.000001510793     
1.404999971390     0.075355000794     -0.000001341127     
1.509999990463     0.080477997661     -0.000001178017     
1.615000009537     0.085766002536     -0.000001021077     
1.720000028610     0.091053999960     -0.000000871463     
1.825000047684     0.096341997385     -0.000000726476     
1.929999947548     0.101630002260     -0.000000586502     
2.035000085831     0.106752999127     -0.000000452312     
2.140000104904     0.112040996552     -0.000000324292     
2.244999885559     0.117329001427     -0.000000198200     
2.349999904633     0.122616998851     -0.000000078277     
2.454999923706     0.127904996276     0.000000036632     
2.480000019073     0.137985005975     0.000000251359     
2.585000038147     0.143107995391     0.000000351565     
2.690000057220     0.148396000266     0.000000446452     
2.795000076294     0.153519004583     0.000000535979     
2.900000095367     0.158641993999     0.000000620060     
3.005000114441     0.163929998875     0.000000696756     
3.109999895096     0.169218003750     0.000000766106     
3.214999914169     0.174505993724     0.000000826930     
3.319999933243     0.179627999663     0.000000882352     
3.424999952316     0.184917002916     0.000000929542     
3.529999971390     0.190204992890     0.000000971583     
3.634999990463     0.195326998830     0.000001006153     
3.740000009537     0.200615003705     0.000001035320     
3.845000028610     0.207390993834     0.000001077760     
3.950000047684     0.212678998709     0.000001095498     
4.054999828339     0.218132004142     0.000001110922     
4.159999847412     0.223254993558     0.000001126732     
4.264999866486     0.228542998433     0.000001140614     
4.369999885559     0.233666002750     0.000001152182     
4.474999904633     0.239118993282     0.000001162593     
4.579999923706     0.244406998158     0.000001172233     
4.684999942780     0.249530002475     0.000001179560     
4.789999961853     0.254817992449     0.000001185729     
4.894999980927     0.260105997324     0.000001190742     
5.000000000000     0.265394002199     0.000001193056     
5.105000019073     0.270682007074     0.000001191899     
5.210000038147     0.275970011950     0.000001190742     
5.315000057220     0.281093001366     0.000001187657     
5.420000076294     0.286381006241     0.000001181102     
5.525000095367     0.291669011116     0.000001173390     
5.630000114441     0.296956986189     0.000001166063     
5.735000133514     0.302244991064     0.000001156423     
5.840000152588     0.307532995939     0.000001146398     
5.945000171661     0.312821000814     0.000001137143     
6.050000190735     0.318109005690     0.000001127889     
6.155000209808     0.323397010565     0.000001117863     
6.260000228882     0.328519999981     0.000001110537     
6.364999771118     0.333808004856     0.000001104753     
6.469999790192     0.339096009731     0.000001098969     
6.574999809265     0.344384014606     0.000001095113     
6.679999828339     0.349671989679     0.000001093956     
6.784999847412     0.354959994555     0.000001091642     
6.889999866486     0.360083013773     0.000001091256     
6.994999885559     0.365370988846     0.000001092413     
7.099999904633     0.370658993721     0.000001093185     
7.204999923706     0.375946998596     0.000001093185     
7.309999942780     0.381235003471     0.000001094727     
7.414999961853     0.386523008347     0.000001097041     
7.519999980927     0.391645997763     0.000001098197     
7.625000000000     0.396934002638     0.000001100511     
7.730000019073     0.402388006449     0.000001103981     
7.835000038147     0.407510012388     0.000001105909     
7.940000057220     0.412797987461     0.000001108609     
8.045000076294     0.418087005615     0.000001112465     
8.149999618530     0.423209011555     0.000001116706     
8.255000114441     0.428496986628     0.000001119406     
8.359999656677     0.433784991503     0.000001124033     
8.465000152588     0.439074009657     0.000001128660     
8.569999694824     0.444362014532     0.000001132516     
8.675000190735     0.449649989605     0.000001136758     
8.779999732971     0.454937994480     0.000001142542     
8.885000228882     0.460060000420     0.000001146012     
8.989999771118     0.465348988771     0.000001150254     
9.095000267029     0.470802009106     0.000001155267     
9.199999809265     0.475924998522     0.000001159123     
9.305000305176     0.481213003397     0.000001162207     
9.409999847412     0.486335009336     0.000001166835     
9.515000343323     0.491789013147     0.000001170305     
9.619999885559     0.497076988220     0.000001172619     
9.725000381470     0.502200007439     0.000001174932     
9.829999923706     0.507488012314     0.000001177632     
9.935000419617     0.512776017189     0.000001178788     
10.039999961853     0.518229007721     0.000001179945     
10.145000457764     0.523352026939     0.000001181488     
10.250000000000     0.528639972210     0.000001182259     
10.354999542236     0.533927977085     0.000001181873     
10.460000038147     0.539215981960     0.000001182644     
10.564999580383     0.544339001179     0.000001182644     
10.670000076294     0.549627006054     0.000001181488     
10.774999618530     0.554915010929     0.000001181102     
10.880000114441     0.560203015804     0.000001181488     
10.984999656677     0.565491020679     0.000001179560     
11.090000152588     0.570779025555     0.000001178788     
11.194999694824     0.576066970825     0.000001179174     
11.300000190735     0.581189990044     0.000001177632     
11.404999732971     0.586477994919     0.000001176089     
11.510000228882     0.591930985451     0.000001176475     
11.614999771118     0.597054004669     0.000001176089     
11.720000267029     0.602342009544     0.000001174932     
11.824999809265     0.607630014420     0.000001174547     
11.930000305176     0.612918019295     0.000001174932     
12.034999847412     0.618206024170     0.000001174547     
12.140000343323     0.623328983784     0.000001174547     
12.244999885559     0.628616988659     0.000001175318     
12.350000381470     0.633904993534     0.000001175704     
12.454999923706     0.639192998409     0.000001176089     
12.560000419617     0.644481003284     0.000001177246     
12.664999961853     0.649769008160     0.000001178403     
12.770000457764     0.655057013035     0.000001179174     
12.875000000000     0.660345017910     0.000001180716     
12.979999542236     0.665633022785     0.000001183030     
13.085000038147     0.670755982399     0.000001183801     
13.189999580383     0.676043987274     0.000001185729     
13.295000076294     0.681331992149     0.000001188428     
13.399999618530     0.686619997025     0.000001190356     
13.505000114441     0.691908001900     0.000001191899     
13.609999656677     0.697197020054     0.000001194984     
13.715000152588     0.702319025993     0.000001197683     
13.819999694824     0.707606971264     0.000001199997     
13.925000190735     0.712894976139     0.000001203081     
14.029999732971     0.718182981014     0.000001206937     
14.135000228882     0.723471999168     0.000001209251     
14.239999771118     0.728760004044     0.000001211950     
14.345000267029     0.734048008919     0.000001215806     
14.449999809265     0.739170014858     0.000001218891     
14.555000305176     0.744458019733     0.000001221976     
14.659999847412     0.749746978283     0.000001226989     
14.765000343323     0.755034983158     0.000001230459     
14.869999885559     0.760322988033     0.000001233930     
14.975000381470     0.765610992908     0.000001238557     
15.079999923706     0.770732998848     0.000001243570     
15.185000419617     0.776187002659     0.000001246654     
15.289999961853     0.781310021877     0.000001250896     
15.395000457764     0.786598026752     0.000001256295     
15.500000000000     0.791885972023     0.000001260536     
15.604999542236     0.797173976898     0.000001264392     
15.710000038147     0.802461981773     0.000001270176     
15.814999580383     0.807749986649     0.000001274804     
15.920000076294     0.812873005867     0.000001279431     
16.024999618530     0.818161010742     0.000001284444     
16.129999160767     0.823449015617     0.000001289842     
16.235000610352     0.828737020493     0.000001293312     
16.340000152588     0.834025025368     0.000001298325     
16.444999694824     0.839312970638     0.000001303338     
16.549999237061     0.844600975513     0.000001307580     
16.655000686646     0.849888980389     0.000001311050     
16.760000228882     0.855011999607     0.000001316063     
16.864999771118     0.860300004482     0.000001319533     
16.969999313354     0.865588009357     0.000001322233     
17.075000762939     0.870876014233     0.000001326089     
17.180000305176     0.875998973846     0.000001329174     
17.284999847412     0.881286978722     0.000001330716     
17.389999389648     0.886740028858     0.000001333415     
17.495000839233     0.891862988472     0.000001336114     
17.600000381470     0.897150993347     0.000001337271     
17.704999923706     0.902438998222     0.000001338042     
17.809999465942     0.907727003098     0.000001341127     
17.915000915527     0.913015007973     0.000001341513     
18.020000457764     0.918303012848     0.000001342284     
18.125000000000     0.923591017723     0.000001343826     
18.229999542236     0.928713977337     0.000001344983     
18.334999084473     0.934001982212     0.000001344983     
18.440000534058     0.939289987087     0.000001346140     
18.545000076294     0.944577991962     0.000001347682     
18.649999618530     0.949865996838     0.000001347682     
18.754999160767     0.955154001713     0.000001348068     
18.860000610352     0.960277020931     0.000001349996     
18.965000152588     0.965565025806     0.000001350767     
19.069999694824     0.970852971077     0.000001351153     
19.174999237061     0.976140975952     0.000001353081     
19.280000686646     0.981428980827     0.000001354238     
19.385000228882     0.986716985703     0.000001355395     
19.489999771118     0.992004990578     0.000001356937     
19.594999313354     0.997292995453     0.000001359251     
19.700000762939     1.002416014671     0.000001360793     
19.805000305176     1.007704019547     0.000001362721     
19.909999847412     1.012992024422     0.000001366577     
20.014999389648     1.018280029297     0.000001369276     
20.120000839233     1.023568034172     0.000001371975     
20.225000381470     1.028691053391     0.000001375832     
20.329999923706     1.033979058266     0.000001380073     
20.434999465942     1.039266943932     0.000001382772     
20.540000915527     1.044721007347     0.000001387400     
20.645000457764     1.049842953682     0.000001392798     
20.750000000000     1.055130958557     0.000001397425     
20.854999542236     1.060253977776     0.000001402824     
20.959999084473     1.065541982651     0.000001410150     
21.065000534058     1.070829987526     0.000001416320     
21.170000076294     1.076117992401     0.000001422875     
21.274999618530     1.081405997276     0.000001431358     
21.379999160767     1.086694955826     0.000001440227     
21.485000610352     1.091982960701     0.000001447939     
21.590000152588     1.097270965576     0.000001457965     
21.694999694824     1.102558970451     0.000001469147     
21.799999237061     1.107846975327     0.000001479559     
21.905000686646     1.113134980202     0.000001490741     
22.010000228882     1.118257999420     0.000001504237     
22.114999771118     1.123546004295     0.000001517733     
22.219999313354     1.128834009171     0.000001531615     
22.325000762939     1.134122014046     0.000001547039     
22.430000305176     1.139410018921     0.000001564006     
22.534999847412     1.144698023796     0.000001580201     
22.639999389648     1.149821043015     0.000001599481     
22.745000839233     1.155109047890     0.000001619533     
22.850000381470     1.160397052765     0.000001640355     
22.954999923706     1.165685057640     0.000001662335     
23.059999465942     1.170972943306     0.000001686628     
23.165000915527     1.176260948181     0.000001710921     
23.270000457764     1.181383967400     0.000001737142     
23.375000000000     1.186671972275     0.000001766062     
23.479999542236     1.191959977150     0.000001795753     
23.584999084473     1.197082996368     0.000001826216     
23.690000534058     1.196917057037     0.000001720175     
23.795000076294     1.191629052162     0.000001560921     
23.899999618530     1.186341047287     0.000001424803     
24.004999160767     1.181218028069     0.000001307580     
24.110000610352     1.175930023193     0.000001205009     
24.215000152588     1.170642018318     0.000001113236     
24.319999694824     1.165354013443     0.000001031874     
24.424999237061     1.160066008568     0.000000960537     
24.530000686646     1.154778003693     0.000000895370     
24.635000228882     1.149654984474     0.000000835987     
24.739999771118     1.144366979599     0.000000783545     
24.844999313354     1.139078974724     0.000000735731     
24.950000762939     1.133790969849     0.000000691386     
25.055000305176     1.128502964973     0.000000651283     
25.159999847412     1.123379945755     0.000000615422     
25.264999389648     1.118091940880     0.000000581489     
25.370000839233     1.112804055214     0.000000550255     
25.475000381470     1.107516050339     0.000000522878     
25.579999923706     1.102393031120     0.000000496271     
25.684999465942     1.096940040588     0.000000470821     
25.790000915527     1.091817021370     0.000000449227     
25.895000457764     1.086364030838     0.000000428791     
26.000000000000     1.081241011620     0.000000408354     
26.104999542236     1.075953006744     0.000000389845     
26.209999084473     1.070665001869     0.000000373264     
26.315000534058     1.065376996994     0.000000356683     
26.420000076294     1.060088992119     0.000000341259     
26.524999618530     1.054965972900     0.000000328148     
26.549999237061     1.044389963150     0.000000310452     
26.655000686646     1.039101958275     0.000000298296     
26.760000228882     1.033979058266     0.000000287955     
26.864999771118     1.028691053391     0.000000277655     
26.969999313354     1.023403048515     0.000000266428     
27.075000762939     1.018115043640     0.000000256973     
27.180000305176     1.012827038765     0.000000249206     
27.284999847412     1.007704019547     0.000000239793     
27.389999389648     1.002416014671     0.000000231520     
27.495000839233     0.997128009796     0.000000224387     
27.600000381470     0.991840004921     0.000000216409     
27.704999923706     0.986552000046     0.000000209191     
27.809999465942     0.981263995171     0.000000203240     
27.915000915527     0.976140975952     0.000000196739     
28.020000457764     0.970852971077     0.000000189733     
28.125000000000     0.965565025806     0.000000184372     
28.229999542236     0.960277020931     0.000000178927     
28.334999084473     0.954989016056     0.000000172849     
28.440000534058     0.949701011181     0.000000167657     
28.545000076294     0.944413006306     0.000000163098     
28.649999618530     0.939289987087     0.000000157864     
28.754999160767     0.934001982212     0.000000153095     
28.860000610352     0.928713977337     0.000000149338     
28.965000152588     0.923425972462     0.000000144653     
29.069999694824     0.918138027191     0.000000139503     
29.174999237061     0.912850022316     0.000000136000     
29.280000686646     0.907727003098     0.000000132581     
29.385000228882     0.902438998222     0.000000127727     
29.489999771118     0.897150993347     0.000000124012     
29.594999313354     0.891862988472     0.000000121437     
29.700000762939     0.886574983597     0.000000117132     
29.805000305176     0.881286978722     0.000000113164     
29.909999847412     0.875998973846     0.000000110843     
30.014999389648     0.870876014233     0.000000106875     
30.120000839233     0.865588009357     0.000000102992     
30.225000381470     0.860300004482     0.000000100923     
30.329999923706     0.855011999607     0.000000097673     
30.434999465942     0.849723994732     0.000000093326     
30.540000915527     0.844435989857     0.000000090540     
30.645000457764     0.839147984982     0.000000088134     
30.750000000000     0.834025025368     0.000000084757     
30.854999542236     0.828737020493     0.000000081760     
30.959999084473     0.823449015617     0.000000079819     
31.065000534058     0.818161010742     0.000000076273     
31.170000076294     0.812873005867     0.000000073023     
31.274999618530     0.807749986649     0.000000071250     
31.379999160767     0.802461981773     0.000000068971     
31.485000610352     0.797173976898     0.000000065636     
31.590000152588     0.791885972023     0.000000062935     
31.694999694824     0.786598026752     0.000000061204     
31.799999237061     0.781310021877     0.000000058292     
31.905000686646     0.776187002659     0.000000055126     
32.009998321533     0.770898997784     0.000000053986     
32.115001678467     0.765610992908     0.000000051074     
32.220001220703     0.760322988033     0.000000048246     
32.325000762939     0.755034983158     0.000000046895     
32.430000305176     0.749746978283     0.000000044911     
32.534999847412     0.744458019733     0.000000041197     
32.639999389648     0.739336013794     0.000000039804     
32.744998931885     0.734048008919     0.000000038031     
32.849998474121     0.728760004044     0.000000035161     
32.955001831055     0.723471999168     0.000000032839     
33.060001373291     0.718017995358     0.000000031320     
33.165000915527     0.712894976139     0.000000028618     
33.270000457764     0.707606971264     0.000000026508     
33.375000000000     0.702485024929     0.000000025199     
33.455001831055     0.694718003273     0.000000022055     
33.560001373291     0.689429998398     0.000000019911     
33.665000915527     0.684141993523     0.000000018548     
33.770000457764     0.678853988647     0.000000016236     
33.875000000000     0.673731029034     0.000000013455     
33.979999542236     0.668443024158     0.000000012183     
34.084999084473     0.663155019283     0.000000010017     
34.189998626709     0.657867014408     0.000000007190     
34.294998168945     0.652743995190     0.000000005270     
34.400001525879     0.647455990314     0.000000003814     
34.505001068115     0.642167985439     0.000000000645     
34.610000610352     0.636879980564     -0.000000001571     
34.715000152588     0.631757020950     -0.000000003080     
34.819999694824     0.626469016075     -0.000000005700     
34.924999237061     0.621181011200     -0.000000008638     
35.029998779297     0.615893006325     -0.000000010167     
35.134998321533     0.610605001450     -0.000000012641     
35.240001678467     0.605481982231     -0.000000015633     
