
Cycle 1
Physical Cycle 1
Step 1

Time (s),          Potential (V),         Current (A)
0.104999996722     0.002485000063     -0.000000298062     
0.209999993443     0.007619999815     -0.000000271313     
0.314999997616     0.012920999900     -0.000000252206     
0.419999986887     0.018222000450     -0.000000233100     
0.449999988079     0.028161000460     -0.000000199672     
0.555000007153     0.033461999148     -0.000000184639     
0.660000026226     0.038763001561     -0.000000170762     
0.764999985695     0.044064000249     -0.000000156885     
0.795000016689     0.054168999195     -0.000000131669     
0.899999976158     0.059305001050     -0.000000119821     
1.004999995232     0.064606003463     -0.000000109906     
1.110000014305     0.069907002151     -0.000000099529     
1.215000033379     0.075208000839     -0.000000089614     
1.320000052452     0.080343000591     -0.000000079783     
1.424999952316     0.085643999279     -0.000000070792     
1.529999971390     0.090944997966     -0.000000061423     
1.634999990463     0.096245996654     -0.000000053483     
1.740000009537     0.101380996406     -0.000000046214     
1.845000028610     0.106682002544     -0.000000037728     
1.950000047684     0.111983001232     -0.000000029283     
2.055000066757     0.117283999920     -0.000000021763     
2.160000085831     0.122584998608     -0.000000014579     
2.265000104904     0.127719998360     -0.000000006932     
2.359999895096     0.134512007236     0.000000002351     
2.464999914169     0.139648005366     0.000000010523     
2.569999933243     0.144948005676     0.000000018115     
2.674999952316     0.150084003806     0.000000025892     
2.779999971390     0.155385002494     0.000000034758     
2.884999990463     0.160520002246     0.000000043518     
2.990000009537     0.165821000934     0.000000051872     
3.095000028610     0.170956000686     0.000000061311     
3.200000047684     0.176091998816     0.000000071913     
3.305000066757     0.181392997503     0.000000082163     
3.404999971390     0.188350006938     0.000000099235     
3.509999990463     0.193651005626     0.000000110368     
3.615000009537     0.198786005378     0.000000123645     
3.720000028610     0.204087004066     0.000000138475     
3.825000047684     0.209388002753     0.000000153768     
3.930000066757     0.214689001441     0.000000168515     
4.034999847412     0.219824999571     0.000000185278     
4.139999866486     0.225125998259     0.000000203385     
4.244999885559     0.230426996946     0.000000221703     
4.349999904633     0.235727995634     0.000000241197     
4.454999923706     0.241028994322     0.000000261868     
4.559999942780     0.246163994074     0.000000281992     
4.664999961853     0.251298993826     0.000000302368     
4.769999980927     0.256599992514     0.000000323921     
4.875000000000     0.261900991201     0.000000346104     
4.980000019073     0.267201989889     0.000000368035     
5.085000038147     0.272502988577     0.000000389209     
5.190000057220     0.277803987265     0.000000411098     
5.295000076294     0.282938987017     0.000000431853     
5.400000095367     0.288239985704     0.000000452691     
5.505000114441     0.293541014194     0.000000473950     
5.610000133514     0.298676997423     0.000000494452     
5.715000152588     0.303977996111     0.000000512812     
5.820000171661     0.309278994799     0.000000531172     
5.925000190735     0.314413994551     0.000000549531     
6.030000209808     0.319714993238     0.000000566673     
6.135000228882     0.325015991926     0.000000583268     
6.239999771118     0.330150991678     0.000000599317     
6.344999790192     0.335451990366     0.000000614105     
6.449999809265     0.340752989054     0.000000627004     
6.554999828339     0.345887988806     0.000000640616     
6.659999847412     0.351188987494     0.000000654018     
6.764999866486     0.356489986181     0.000000666328     
6.869999885559     0.361791014671     0.000000677251     
6.974999904633     0.367092013359     0.000000688385     
7.079999923706     0.372393012047     0.000000698342     
7.184999942780     0.377694010735     0.000000707879     
7.289999961853     0.382829993963     0.000000717794     
7.394999980927     0.388130992651     0.000000727709     
7.500000000000     0.393265992403     0.000000735355     
7.605000019073     0.398566991091     0.000000743548     
7.710000038147     0.403867989779     0.000000751698     
7.815000057220     0.409168988466     0.000000759681     
7.920000076294     0.414469987154     0.000000767621     
8.024999618530     0.419770985842     0.000000775772     
8.130000114441     0.424905985594     0.000000782872     
8.234999656677     0.430207014084     0.000000788922     
8.340000152588     0.435508012772     0.000000796106     
8.444999694824     0.440643012524     0.000000803921     
8.550000190735     0.445944011211     0.000000810895     
8.654999732971     0.451245009899     0.000000817533     
8.760000228882     0.456546008587     0.000000825053     
8.864999771118     0.461847007275     0.000000831691     
8.970000267029     0.466982990503     0.000000838203     
9.074999809265     0.472283989191     0.000000845766     
9.180000305176     0.477418988943     0.000000853664     
9.284999847412     0.482719987631     0.000000860134     
9.390000343323     0.488020986319     0.000000866646     
9.494999885559     0.493322014809     0.000000874923     
9.600000381470     0.498623013496     0.000000882527     
9.704999923706     0.503924012184     0.000000890258     
9.810000419617     0.509059011936     0.000000898744     
9.914999961853     0.514360010624     0.000000907189     
10.020000457764     0.519661009312     0.000000914331     
10.125000000000     0.524796009064     0.000000923112     
10.229999542236     0.530097007751     0.000000932229     
10.335000038147     0.535398006439     0.000000941177     
10.439999580383     0.540699005127     0.000000950126     
10.545000076294     0.545835018158     0.000000960209     
10.649999618530     0.551136016846     0.000000969242     
10.755000114441     0.556436002254     0.000000978233     
10.859999656677     0.561737000942     0.000000988568     
10.965000152588     0.566873013973     0.000000999996     
11.069999694824     0.572174012661     0.000001009911     
11.175000190735     0.577475011349     0.000001019742     
11.279999732971     0.582776010036     0.000001030749     
11.385000228882     0.588077008724     0.000001041295     
11.484999656677     0.595034003258     0.000001062735     
11.590000152588     0.600335001945     0.000001073528     
11.694999694824     0.605636000633     0.000001083551     
11.800000190735     0.610936999321     0.000001093958     
11.904999732971     0.616237998009     0.000001105522     
12.010000228882     0.621372997761     0.000001116315     
12.114999771118     0.626673996449     0.000001127879     
12.220000267029     0.631974995136     0.000001140600     
12.324999809265     0.637275993824     0.000001151778     
12.430000305176     0.642412006855     0.000001162186     
12.534999847412     0.647713005543     0.000001173750     
12.640000343323     0.653014004230     0.000001186085     
12.744999885559     0.658315002918     0.000001197264     
12.850000381470     0.663616001606     0.000001208828     
12.954999923706     0.668751001358     0.000001220777     
13.060000419617     0.674052000046     0.000001231956     
13.164999961853     0.679352998734     0.000001241978     
13.270000457764     0.684653997421     0.000001253927     
13.375000000000     0.689788997173     0.000001265877     
13.479999542236     0.695089995861     0.000001276670     
13.585000038147     0.700390994549     0.000001287078     
13.689999580383     0.705691993237     0.000001298642     
13.795000076294     0.710826992989     0.000001309049     
13.899999618530     0.716127991676     0.000001319457     
14.005000114441     0.721428990364     0.000001331406     
14.109999656677     0.726729989052     0.000001342585     
14.215000152588     0.732030987740     0.000001352607     
14.319999694824     0.737331986427     0.000001363015     
14.425000190735     0.742467999458     0.000001374193     
14.529999732971     0.747767984867     0.000001384987     
14.635000228882     0.753068983555     0.000001395780     
14.739999771118     0.758369982243     0.000001407729     
14.845000267029     0.763505995274     0.000001418137     
14.949999809265     0.768806993961     0.000001428159     
15.055000305176     0.774107992649     0.000001439723     
15.159999847412     0.779408991337     0.000001451672     
15.265000343323     0.784709990025     0.000001462851     
15.369999885559     0.789844989777     0.000001474030     
15.475000381470     0.795145988464     0.000001486365     
15.579999923706     0.800446987152     0.000001497158     
15.685000419617     0.805747985840     0.000001508336     
15.789999961853     0.810882985592     0.000001521442     
15.895000457764     0.816183984280     0.000001534163     
16.000000000000     0.821484982967     0.000001545341     
16.104999542236     0.826785981655     0.000001557291     
16.209999084473     0.832086980343     0.000001570011     
16.315000534058     0.837387979031     0.000001582346     
16.420000076294     0.842522978783     0.000001594681     
16.524999618530     0.847823977470     0.000001608172     
16.629999160767     0.853124976158     0.000001620893     
16.735000610352     0.858425974846     0.000001633999     
16.840000152588     0.863726973534     0.000001647105     
16.944999694824     0.868862986565     0.000001660596     
17.049999237061     0.874163985252     0.000001674088     
17.155000686646     0.879464983940     0.000001687964     
17.260000228882     0.884765028954     0.000001702612     
17.364999771118     0.889900982380     0.000001715718     
17.469999313354     0.895201981068     0.000001729595     
17.575000762939     0.900502979755     0.000001744628     
17.680000305176     0.905803978443     0.000001759661     
17.784999847412     0.910938978195     0.000001773924     
17.889999389648     0.916239976883     0.000001788572     
17.995000839233     0.921540975571     0.000001803605     
18.100000381470     0.926841974258     0.000001818638     
18.204999923706     0.932142972946     0.000001832900     
18.309999465942     0.937277972698     0.000001849090     
18.415000915527     0.942578971386     0.000001865280     
18.520000457764     0.947880029678     0.000001881469     
18.625000000000     0.953181028366     0.000001896888     
18.729999542236     0.958482027054     0.000001914620     
18.834999084473     0.963617026806     0.000001931195     
18.940000534058     0.969084024429     0.000001948926     
19.045000076294     0.974219024181     0.000001966658     
19.149999618530     0.979520022869     0.000001985160     
19.254999160767     0.984655976295     0.000002002121     
19.360000610352     0.989956974983     0.000002020623     
19.465000152588     0.995257973671     0.000002040668     
19.569999694824     1.000558972359     0.000002059556     
19.674999237061     1.005694031715     0.000002080371     
19.780000686646     1.010995030403     0.000002101186     
19.885000228882     1.016296029091     0.000002121616     
19.989999771118     1.021597027779     0.000002142817     
20.094999313354     1.026898026466     0.000002166330     
20.200000762939     1.032032966614     0.000002191771     
20.305000305176     1.037333965302     0.000002215670     
20.409999847412     1.042634963989     0.000002239569     
20.514999389648     1.047935962677     0.000002266552     
20.620000839233     1.053071022034     0.000002293149     
20.725000381470     1.058372020721     0.000002320903     
20.829999923706     1.063673019409     0.000002350198     
20.934999465942     1.068974018097     0.000002381036     
21.040000915527     1.074275016785     0.000002413415     
21.145000457764     1.079576015472     0.000002446565     
21.250000000000     1.084712028503     0.000002481258     
21.354999542236     1.090013027191     0.000002516335     
21.459999084473     1.095314025879     0.000002554496     
21.565000534058     1.100448966026     0.000002594200     
21.670000076294     1.105749964714     0.000002634288     
21.774999618530     1.111050963402     0.000002676304     
21.879999160767     1.116351962090     0.000002721790     
21.985000610352     1.121652960777     0.000002769202     
22.090000152588     1.126788020134     0.000002818542     
22.194999694824     1.132254958153     0.000002869424     
22.299999237061     1.137390017509     0.000002923775     
22.405000686646     1.142691016197     0.000002979668     
22.510000228882     1.147825956345     0.000003038259     
22.614999771118     1.153126955032     0.000003101476     
22.719999313354     1.158427953720     0.000003166620     
22.825000762939     1.163728952408     0.000003233691     
22.930000305176     1.169029951096     0.000003303461     
23.034999847412     1.174165010452     0.000003376700     
23.139999389648     1.179466009140     0.000003453022     
23.245000839233     1.184767007828     0.000003533585     
23.350000381470     1.190068006516     0.000003617232     
23.454999923706     1.195204019547     0.000003704733     
23.559999465942     1.198351025581     0.000003688543     
23.665000915527     1.193712949753     0.000003400599     
23.770000457764     1.188411951065     0.000003137710     
23.875000000000     1.183277010918     0.000002901803     
23.979999542236     1.177976012230     0.000002691723     
24.084999084473     1.172839999199     0.000002505157     
24.190000534058     1.167539000511     0.000002333623     
24.295000076294     1.162238001823     0.000002179436     
24.399999618530     1.156937003136     0.000002041053     
24.504999160767     1.151636004448     0.000001914234     
24.610000610352     1.146500945091     0.000001798979     
24.715000152588     1.141034007072     0.000001697601     
24.819999694824     1.135898947716     0.000001602776     
24.924999237061     1.130764007568     0.000001514118     
25.030000686646     1.125463008881     0.000001432014     
25.135000228882     1.120162010193     0.000001358004     
25.239999771118     1.114861011505     0.000001288620     
25.344999313354     1.109560012817     0.000001223861     
25.450000762939     1.104424953461     0.000001165270     
25.555000305176     1.099123954773     0.000001111304     
25.659999847412     1.093822956085     0.000001061193     
25.764999389648     1.088521957397     0.000001014937     
25.870000839233     1.083220958710     0.000000972536     
25.975000381470     1.078084945679     0.000000931291     
26.079999923706     1.072783946991     0.000000893515     
26.184999465942     1.067482948303     0.000000858437     
26.290000915527     1.062181949615     0.000000826443     
26.395000457764     1.056880950928     0.000000795991     
26.500000000000     1.051746010780     0.000000767467     
26.604999542236     1.046445012093     0.000000741255     
26.709999084473     1.041144013405     0.000000715429     
26.815000534058     1.035843014717     0.000000691530     
26.920000076294     1.030707955360     0.000000669558     
27.024999618530     1.025406956673     0.000000649899     
27.129999160767     1.020105957985     0.000000629855     
27.235000610352     1.014804959297     0.000000610967     
27.340000152588     1.009503960609     0.000000593621     
27.444999694824     1.004369020462     0.000000575889     
27.549999237061     0.999068021774     0.000000559700     
27.655000686646     0.993767023087     0.000000545823     
27.760000228882     0.988631010056     0.000000532331     
27.864999771118     0.983165025711     0.000000518454     
27.969999313354     0.978029012680     0.000000505349     
28.075000762939     0.972729027271     0.000000493785     
28.180000305176     0.967428028584     0.000000481064     
28.284999847412     0.962292015553     0.000000470656     
28.389999389648     0.956991016865     0.000000459863     
28.495000839233     0.951690018177     0.000000449841     
28.600000381470     0.946389019489     0.000000439048     
28.704999923706     0.941254019737     0.000000429411     
28.809999465942     0.935787022114     0.000000420931     
28.915000915527     0.930652022362     0.000000412065     
29.020000457764     0.925351023674     0.000000403200     
29.125000000000     0.920050024986     0.000000395876     
29.229999542236     0.914749026299     0.000000387010     
29.334999084473     0.909448027611     0.000000378530     
29.440000534058     0.904313027859     0.000000371591     
29.545000076294     0.899012029171     0.000000365038     
29.649999618530     0.893710970879     0.000000357714     
29.764999389648     0.882445991039     0.000000341861     
29.870000839233     0.877310991287     0.000000335096     
29.975000381470     0.872009992599     0.000000328879     
30.079999923706     0.866708993912     0.000000321946     
30.184999465942     0.861407995224     0.000000315644     
30.290000915527     0.856272995472     0.000000310351     
30.395000457764     0.850971996784     0.000000303671     
30.500000000000     0.845670998096     0.000000297201     
30.604999542236     0.840369999409     0.000000290563     
30.709999084473     0.835234999657     0.000000285479     
30.815000534058     0.829934000969     0.000000279387     
30.920000076294     0.824633002281     0.000000273337     
31.024999618530     0.819332003593     0.000000268044     
31.129999160767     0.814031004906     0.000000261910     
31.235000610352     0.808894991875     0.000000255902     
31.340000152588     0.803593993187     0.000000251196     
31.444999694824     0.798292994499     0.000000246071     
31.549999237061     0.792991995811     0.000000240189     
31.655000686646     0.787690997124     0.000000234475     
31.760000228882     0.782555997372     0.000000229181     
31.864999771118     0.777254998684     0.000000223006     
31.969999313354     0.772119998932     0.000000218048     
32.075000762939     0.766653001308     0.000000213637     
32.180000305176     0.761518001556     0.000000208595     
32.284999847412     0.756217002869     0.000000202083     
32.389999389648     0.750916004181     0.000000197041     
32.494998931885     0.745615005493     0.000000192294     
32.599998474121     0.740314006805     0.000000186748     
32.705001831055     0.735179007053     0.000000181371     
32.810001373291     0.729878008366     0.000000177589     
32.915000915527     0.724741995335     0.000000171876     
33.020000457764     0.719440996647     0.000000166162     
33.125000000000     0.714139997959     0.000000160994     
33.229999542236     0.708838999271     0.000000156751     
33.334999084473     0.703538000584     0.000000151541     
33.439998626709     0.698238015175     0.000000146374     
33.544998168945     0.693102002144     0.000000141626     
33.650001525879     0.687801003456     0.000000135996     
33.755001068115     0.682500004768     0.000000130493     
33.860000610352     0.677365005016     0.000000126880     
33.965000152588     0.672064006329     0.000000122090     
34.069999694824     0.666763007641     0.000000116334     
34.174999237061     0.661462008953     0.000000110957     
34.279998779297     0.656327009201     0.000000106251     
34.384998321533     0.650860011578     0.000000100831     
34.490001678467     0.645725011826     0.000000096168     
34.595001220703     0.640424013138     0.000000092135     
34.700000762939     0.635123014450     0.000000087261     
34.805000305176     0.629987001419     0.000000081295     
34.909999847412     0.624687016010     0.000000075960     
35.014999389648     0.619386017323     0.000000071758     
35.119998931885     0.614085018635     0.000000066717     
35.224998474121     0.608949005604     0.000000061717     
35.330001831055     0.603483021259     0.000000057726     
