
Cycle 1
Physical Cycle 1
Step 1

Time (s),          Potential (V),         Current (A)
0.104999996722     0.001818999997     0.000000785256     
0.209999993443     0.006945000030     0.000001055902     
0.314999997616     0.012236000039     0.000001276993     
0.419999986887     0.017526999116     0.000001482837     
0.449999988079     0.027448000386     0.000001769788     
0.555000007153     0.032738998532     0.000001964810     
0.660000026226     0.037865001708     0.000002159449     
0.764999985695     0.043156001717     0.000002354855     
0.870000004768     0.048448000103     0.000002551413     
0.975000023842     0.053739000112     0.000002744515     
1.080000042915     0.059030000120     0.000002936850     
1.184999942780     0.064320996404     0.000003133024     
1.289999961853     0.069447003305     0.000003331118     
1.394999980927     0.074738003314     0.000003526524     
1.500000000000     0.080030001700     0.000003724617     
1.605000019073     0.085321001709     0.000003924630     
1.710000038147     0.090447001159     0.000004124643     
1.815000057220     0.095738001168     0.000004323120     
1.919999957085     0.100864000618     0.000004527356     
2.025000095367     0.106155000627     0.000004731976     
2.130000114441     0.111446000636     0.000004933909     
2.234999895096     0.116737000644     0.000005132770     
2.339999914169     0.122028999031     0.000005334702     
2.444999933243     0.127320006490     0.000005542393     
2.549999952316     0.132446005940     0.000005748932     
2.654999971390     0.137737005949     0.000005953552     
2.759999990463     0.143028005958     0.000006161627     
2.865000009537     0.148154005408     0.000006369702     
2.970000028610     0.153445005417     0.000006579312     
3.075000047684     0.158736005425     0.000006791226     
3.180000066757     0.164028003812     0.000007007363     
3.285000085831     0.169154003263     0.000007223500     
3.390000104904     0.174610003829     0.000007440789     
3.494999885559     0.179736003280     0.000007658845     
3.599999904633     0.185027003288     0.000007878053     
3.704999923706     0.190153002739     0.000008104939     
3.809999942780     0.195444002748     0.000008337584     
3.914999961853     0.200736001134     0.000008568693     
4.019999980927     0.205861002207     0.000008802489     
4.125000000000     0.211153000593     0.000009041660     
4.230000019073     0.216444000602     0.000009287357     
4.255000114441     0.227191999555     0.000009922428     
4.360000133514     0.232648000121     0.000010170203     
4.465000152588     0.237939000130     0.000010425601     
4.570000171661     0.243230998516     0.000010684812     
4.675000190735     0.248355999589     0.000010951646     
4.780000209808     0.253648012877     0.000011222292     
4.885000228882     0.258938997984     0.000011496751     
4.989999771118     0.264064997435     0.000011767397     
5.094999790192     0.269520998001     0.000012045667     
5.199999809265     0.274646997452     0.000012331561     
5.304999828339     0.279938012362     0.000012617455     
5.409999847412     0.285230010748     0.000012903349     
5.514999866486     0.290520995855     0.000013193055     
5.619999885559     0.295812010765     0.000013482761     
5.724999904633     0.301102995872     0.000013780091     
5.829999923706     0.306228995323     0.000014077421     
5.934999942780     0.311520010233     0.000014378562     
6.039999961853     0.316812008619     0.000014675892     
6.144999980927     0.322102993727     0.000014977034     
6.250000000000     0.327394008636     0.000015274363     
6.355000019073     0.332684993744     0.000015575504     
6.460000038147     0.337810993195     0.000015884270     
6.565000057220     0.343102008104     0.000016196847     
6.670000076294     0.348394006491     0.000016501803     
6.775000095367     0.353684991598     0.000016814380     
6.880000114441     0.358976006508     0.000017126957     
6.985000133514     0.364266991615     0.000017447159     
7.090000152588     0.369392991066     0.000017763547     
7.195000171661     0.374684005976     0.000018079936     
7.300000190735     0.379974991083     0.000018396326     
7.405000209808     0.385266989470     0.000018716528     
7.510000228882     0.390558004379     0.000019036728     
7.614999771118     0.395848989487     0.000019356930     
7.719999790192     0.400974988937     0.000019665695     
7.824999809265     0.406266003847     0.000019985897     
7.929999828339     0.411556988955     0.000020294661     
8.034999847412     0.416848987341     0.000020611051     
8.140000343323     0.422140002251     0.000020935066     
8.244999885559     0.427266001701     0.000021262889     
8.350000381470     0.432556986809     0.000021579279     
8.454999923706     0.437848001719     0.000021891858     
8.560000419617     0.443138986826     0.000022204435     
8.664999961853     0.448430985212     0.000022520822     
8.770000457764     0.453722000122     0.000022837214     
8.875000000000     0.459012985229     0.000023149791     
8.979999542236     0.464139014482     0.000023462368     
9.085000038147     0.469429999590     0.000023782570     
9.189999580383     0.474721014500     0.000024102770     
9.295000076294     0.479847013950     0.000024422970     
9.399999618530     0.485303997993     0.000024743173     
9.505000114441     0.490595012903     0.000025059562     
9.609999656677     0.495721012354     0.000025375952     
9.715000152588     0.501012027264     0.000025692341     
9.819999694824     0.506303012371     0.000026016354     
9.925000190735     0.511593997478     0.000026344180     
10.029999732971     0.516885995865     0.000026660568     
10.135000228882     0.522176980972     0.000026980770     
10.239999771118     0.527468025684     0.000027297159     
10.345000267029     0.532594025135     0.000027624985     
10.449999809265     0.537885010242     0.000027952809     
10.555000305176     0.543175995350     0.000028280634     
10.659999847412     0.548467993736     0.000028600836     
10.765000343323     0.553758978844     0.000028932473     
10.869999885559     0.559050023556     0.000029260298     
10.975000381470     0.564176023006     0.000029591934     
11.079999923706     0.569467008114     0.000029927383     
11.185000419617     0.574757993221     0.000030262832     
11.289999961853     0.579883992672     0.000030598283     
11.395000457764     0.585174977779     0.000030926109     
11.500000000000     0.590466976166     0.000031261556     
11.604999542236     0.595758020878     0.000031604628     
11.710000038147     0.601049005985     0.000031943891     
11.814999580383     0.606339991093     0.000032283151     
11.920000076294     0.611630976200     0.000032622411     
12.024999618530     0.616756975651     0.000032961671     
12.130000114441     0.622048974037     0.000033304746     
12.234999656677     0.627340018749     0.000033651631     
12.340000152588     0.632631003857     0.000033990891     
12.444999694824     0.637921988964     0.000034341589     
12.550000190735     0.643212974072     0.000034688474     
12.654999732971     0.648338973522     0.000035035358     
12.760000228882     0.653630971909     0.000035386052     
12.864999771118     0.658922016621     0.000035736750     
12.970000267029     0.664213001728     0.000036087447     
13.074999809265     0.669503986835     0.000036441954     
13.180000305176     0.674794971943     0.000036796464     
13.284999847412     0.680086970329     0.000037154783     
13.390000343323     0.685378015041     0.000037505481     
13.494999885559     0.690504014492     0.000037856178     
13.600000381470     0.695794999599     0.000038210685     
13.704999923706     0.701085984707     0.000038576629     
13.810000419617     0.706377029419     0.000038942577     
13.914999961853     0.711669027805     0.000039312330     
14.020000457764     0.716960012913     0.000039689712     
14.125000000000     0.722250998020     0.000040067091     
14.229999542236     0.727541983128     0.000040444473     
14.335000038147     0.732667982578     0.000040821851     
14.439999580383     0.737959027290     0.000041206855     
14.545000076294     0.743250012398     0.000041595671     
14.649999618530     0.748542010784     0.000041995921     
14.755000114441     0.753668010235     0.000042388550     
14.859999656677     0.758958995342     0.000042788801     
14.965000152588     0.764249980450     0.000043204302     
15.069999694824     0.769541025162     0.000043627424     
15.175000190735     0.774667024612     0.000044035300     
15.279999732971     0.779958009720     0.000044443175     
15.385000228882     0.785250008106     0.000044851051     
15.489999771118     0.790540993214     0.000045262739     
15.595000267029     0.795831978321     0.000045670615     
15.699999809265     0.801123023033     0.000046082299     
15.805000305176     0.806414008141     0.000046486362     
15.909999847412     0.811706006527     0.000046890429     
16.014999389648     0.816830992699     0.000047283054     
16.120000839233     0.822122991085     0.000047687117     
16.225000381470     0.827413976192     0.000048098806     
16.329999923706     0.832705020905     0.000048506681     
16.434999465942     0.837831020355     0.000048922182     
16.540000915527     0.843288004398     0.000049349117     
16.645000457764     0.848412990570     0.000049776052     
16.750000000000     0.853704988956     0.000050199174     
16.854999542236     0.858995974064     0.000050607050     
16.959999084473     0.864287018776     0.000051026360     
17.065000534058     0.869578003883     0.000051460920     
17.170000076294     0.874868988991     0.000051899289     
17.274999618530     0.879994988441     0.000052322415     
17.379999160767     0.885286986828     0.000052756972     
17.485000610352     0.890577971935     0.000053218217     
17.590000152588     0.895703971386     0.000053668024     
17.694999694824     0.901160001755     0.000054121640     
17.799999237061     0.906286001205     0.000054571447     
17.905000686646     0.911576986313     0.000055044125     
18.010000228882     0.916868984699     0.000055497741     
18.114999771118     0.922160029411     0.000055962799     
18.219999313354     0.927451014519     0.000056446912     
18.325000762939     0.932741999626     0.000056927212     
18.430000305176     0.937867999077     0.000057426576     
18.534999847412     0.943158984184     0.000057895442     
18.639999389648     0.948450028896     0.000058371930     
18.745000839233     0.953742027283     0.000058867481     
18.850000381470     0.958868026733     0.000059359219     
18.954999923706     0.964323997498     0.000059870017     
19.059999465942     0.969449996948     0.000060373190     
19.165000915527     0.974740982056     0.000060838243     
19.270000457764     0.980032026768     0.000061341416     
19.375000000000     0.985324025154     0.000061836967     
19.479999542236     0.990615010262     0.000062355386     
19.584999084473     0.995905995369     0.000062930987     
19.690000534058     1.001196980476     0.000063441788     
19.795000076294     1.006322979927     0.000063948770     
19.899999618530     1.011613965034     0.000064444321     
20.004999160767     1.016906023026     0.000064981803     
20.110000610352     1.022197008133     0.000065549779     
20.215000152588     1.027487993240     0.000066163499     
20.319999694824     1.032613992691     0.000066754343     
20.424999237061     1.037904977798     0.000067329944     
20.530000686646     1.043195962906     0.000067936038     
20.635000228882     1.048321962357     0.000068515452     
20.739999771118     1.053612947464     0.000069083428     
20.844999313354     1.058905005455     0.000069781010     
20.950000762939     1.064195990562     0.000070516711     
21.055000305176     1.069486975670     0.000071176168     
21.159999847412     1.074777960777     0.000071831819     
21.264999389648     1.080068945885     0.000072502720     
21.370000839233     1.085361003876     0.000073207921     
21.475000381470     1.090487003326     0.000073939809     
21.579999923706     1.095777988434     0.000074725067     
21.684999465942     1.101068973541     0.000075559881     
21.790000915527     1.106359958649     0.000076360382     
21.895000457764     1.111650943756     0.000077160883     
22.000000000000     1.116776943207     0.000077892772     
22.104999542236     1.122068047523     0.000078662779     
22.209999084473     1.127359986305     0.000079566205     
22.315000534058     1.132650971413     0.000080515376     
22.420000076294     1.137941956520     0.000081510283     
22.524999618530     1.143232941628     0.000082326034     
22.629999160767     1.148358941078     0.000083141786     
22.735000610352     1.153650045395     0.000083793624     
22.840000152588     1.158941984177     0.000084407344     
22.944999694824     1.164232969284     0.000084819032     
23.049999237061     1.169523954391     0.000085074433     
23.155000686646     1.174649953842     0.000085951171     
23.260000228882     1.179941058159     0.000086637316     
23.364999771118     1.185232043266     0.000087525492     
23.469999313354     1.190523982048     0.000088143024     
23.575000762939     1.195649027824     0.000088650013     
23.680000305176     1.196310997009     0.000088223074     
23.784999847412     1.191184997559     0.000086736429     
23.889999389648     1.185894012451     0.000085287895     
23.995000839233     1.180603027344     0.000083984218     
24.100000381470     1.175477027893     0.000082531878     
24.204999923706     1.170184969902     0.000081266320     
24.309999465942     1.164893984795     0.000080035075     
24.415000915527     1.159602999687     0.000078742829     
24.520000457764     1.154312014580     0.000077309553     
24.625000000000     1.149021029472     0.000076009688     
24.729999542236     1.143895030022     0.000074740317     
24.834999084473     1.138604044914     0.000073570060     
24.940000534058     1.133311986923     0.000072262570     
25.045000076294     1.128021001816     0.000070882656     
25.149999618530     1.122895002365     0.000069510359     
25.254999160767     1.117604017258     0.000068149508     
25.360000610352     1.112313032150     0.000067017369     
25.465000152588     1.107022047043     0.000065782304     
25.569999694824     1.101729989052     0.000064802640     
25.674999237061     1.096604943275     0.000063716245     
25.780000686646     1.091313004494     0.000062755636     
25.885000228882     1.086022019386     0.000061707360     
25.989999771118     1.080896019936     0.000060758193     
26.094999313354     1.075440049171     0.000059755657     
26.200000762939     1.070314049721     0.000058715003     
26.305000305176     1.065022945404     0.000057941183     
26.409999847412     1.059731006622     0.000056957710     
26.514999389648     1.054440021515     0.000056103840     
26.620000839233     1.049149036407     0.000055307148     
26.725000381470     1.044023036957     0.000054476150     
26.829999923706     1.038732051849     0.000053668024     
26.934999465942     1.033440947533     0.000052844647     
27.040000915527     1.028149008751     0.000052028896     
27.145000457764     1.022858023643     0.000051262701     
27.250000000000     1.017567038536     0.000050587991     
27.354999542236     1.012276053429     0.000049840855     
27.459999084473     1.007150053978     0.000049166145     
27.565000534058     1.001858949661     0.000048430444     
27.670000076294     0.996567010880     0.000047675683     
27.774999618530     0.991276025772     0.000047084835     
27.879999160767     0.986150026321     0.000046394878     
27.985000610352     0.980693995953     0.000045701108     
28.090000152588     0.975567996502     0.000045045457     
28.194999694824     0.970277011395     0.000044485107     
28.299999237061     0.964986026287     0.000043898071     
28.405000686646     0.959860026836     0.000043330096     
28.510000228882     0.954568028450     0.000042758307     
28.614999771118     0.949276983738     0.000042175085     
28.719999313354     0.943985998631     0.000041588046     
28.825000762939     0.938695013523     0.000041119180     
28.930000305176     0.933569014072     0.000040707495     
29.034999847412     0.928278028965     0.000040333925     
29.139999389648     0.922985970974     0.000039826940     
29.245000839233     0.917694985867     0.000039434311     
29.350000381470     0.912404000759     0.000038896833     
29.454999923706     0.907113015652     0.000038244994     
29.559999465942     0.901821970940     0.000037353006     
29.665000915527     0.896695971489     0.000036685917     
29.770000457764     0.891404986382     0.000036182744     
29.875000000000     0.886112987995     0.000035691006     
29.979999542236     0.880822002888     0.000035214518     
30.084999084473     0.875531017780     0.000034707533     
30.190000534058     0.870405018330     0.000034265347     
30.295000076294     0.865113973618     0.000033777422     
30.399999618530     0.859822988510     0.000033293309     
30.504999160767     0.854530990124     0.000032851127     
30.610000610352     0.849240005016     0.000032393695     
30.715000152588     0.843949019909     0.000031943891     
30.819999694824     0.838823020458     0.000031501706     
30.924999237061     0.833531975746     0.000031070958     
31.030000686646     0.828240990639     0.000030628777     
31.135000228882     0.822948992252     0.000030186595     
31.239999771118     0.817658007145     0.000029774907     
31.344999313354     0.812532007694     0.000029374656     
31.450000762939     0.807241022587     0.000028989652     
31.555000305176     0.801949977875     0.000028589400     
31.659999847412     0.796658992767     0.000028177714     
31.764999389648     0.791366994381     0.000027781272     
31.870000839233     0.786076009274     0.000027373399     
31.975000381470     0.780785024166     0.000026976959     
32.080001831055     0.775659024715     0.000026588143     
32.185001373291     0.770367980003     0.000026203137     
32.290000915527     0.765076994896     0.000025818134     
32.395000457764     0.759786009789     0.000025436942     
32.500000000000     0.754494011402     0.000025059562     
32.604999542236     0.749368011951     0.000024678369     
32.709999084473     0.744077026844     0.000024300991     
32.814998626709     0.738785982132     0.000023938857     
32.919998168945     0.733494997025     0.000023572913     
33.025001525879     0.728204011917     0.000023195533     
33.130001068115     0.722912013531     0.000022825778     
33.235000610352     0.717621028423     0.000022456021     
33.340000152588     0.712495028973     0.000022090077     
33.444999694824     0.707203984261     0.000021724132     
33.549999237061     0.701912999153     0.000021362001     
33.654998779297     0.696622014046     0.000020988433     
33.759998321533     0.691330015659     0.000020626299     
33.865001678467     0.686038970947     0.000020260355     
33.970001220703     0.680912971497     0.000019902034     
34.075000762939     0.675621986389     0.000019551338     
34.180000305176     0.670331001282     0.000019204454     
34.284999847412     0.665040016174     0.000018846133     
34.389999389648     0.659748017788     0.000018499248     
34.494998931885     0.654456973076     0.000018148550     
34.599998474121     0.649165987968     0.000017805478     
34.705001831055     0.643875002861     0.000017470029     
34.810001373291     0.638749003410     0.000017126957     
34.915000915527     0.633292019367     0.000016787695     
35.020000457764     0.628166973591     0.000016456059     
35.125000000000     0.622874975204     0.000016124422     
35.229999542236     0.617748975754     0.000015796595     
35.334999084473     0.612293004990     0.000015457335     
35.439998626709     0.607167005539     0.000015121887     
