
Cycle 1
Physical Cycle 1
Step 1

Time (s),          Potential (V),         Current (A)
0.104999996722     0.002479000017     -0.000000023022     
0.209999993443     0.007766999770     0.000000003837     
0.314999997616     0.012889999896     0.000000019185     
0.419999986887     0.018342999741     0.000000034533     
0.449999988079     0.028257999569     0.000000123393     
0.555000007153     0.033546000719     0.000000134961     
0.660000026226     0.038833998144     0.000000146529     
0.764999985695     0.044121999294     0.000000157326     
0.795000016689     0.054037000984     0.000000182093     
0.899999976158     0.059324998409     0.000000191632     
1.004999995232     0.064612999558     0.000000201129     
1.110000014305     0.069735996425     0.000000210078     
1.215000033379     0.075024001300     0.000000218604     
1.320000052452     0.080311998725     0.000000227341     
1.424999952316     0.085600003600     0.000000235615     
1.529999971390     0.090888001025     0.000000243634     
1.634999990463     0.096010997891     0.000000252203     
1.740000009537     0.101464003325     0.000000260392     
1.845000028610     0.106587000191     0.000000267778     
1.950000047684     0.111874997616     0.000000276051     
2.055000066757     0.117163002491     0.000000284662     
2.160000085831     0.122450999916     0.000000292682     
2.265000104904     0.127738997340     0.000000300660     
2.369999885559     0.133028000593     0.000000309735     
2.474999904633     0.138150006533     0.000000318135     
2.579999923706     0.143437996507     0.000000326872     
2.684999942780     0.148726001382     0.000000336116     
2.789999961853     0.154014006257     0.000000345275     
2.894999980927     0.159302994609     0.000000354308     
3.000000000000     0.164425000548     0.000000364481     
3.105000019073     0.169713005424     0.000000374653     
3.210000038147     0.175000995398     0.000000384319     
3.315000057220     0.180289000273     0.000000394914     
3.420000076294     0.185578003526     0.000000406100     
3.525000095367     0.190865993500     0.000000416905     
3.630000114441     0.195987999439     0.000000427880     
3.734999895096     0.201276004314     0.000000439698     
3.839999914169     0.206563994288     0.000000451264     
3.944999933243     0.211852997541     0.000000462998     
4.050000190735     0.216975003481     0.000000475366     
4.155000209808     0.222262993455     0.000000487438     
4.260000228882     0.227550998330     0.000000499087     
4.364999771118     0.232840001583     0.000000511539     
4.469999790192     0.238128006458     0.000000523949     
4.574999809265     0.243415996432     0.000000535388     
4.679999828339     0.248538002372     0.000000546953     
4.784999847412     0.253825992346     0.000000559616     
4.889999866486     0.259115010500     0.000000571350     
4.994999885559     0.264402985573     0.000000582916     
5.099999904633     0.269690990448     0.000000594946     
5.204999923706     0.274978995323     0.000000606680     
5.309999942780     0.280101001263     0.000000618161     
5.414999961853     0.285389989614     0.000000630317     
5.519999980927     0.290677994490     0.000000641798     
5.625000000000     0.295965999365     0.000000652900     
5.730000019073     0.301254004240     0.000000664887     
5.835000038147     0.306542009115     0.000000676875     
5.940000057220     0.311664998531     0.000000688187     
6.045000076294     0.316953003407     0.000000699584     
6.150000095367     0.322241008282     0.000000711402     
6.255000114441     0.327529013157     0.000000723010     
6.360000133514     0.332650989294     0.000000734322     
6.465000152588     0.337940007448     0.000000746141     
6.570000171661     0.343228012323     0.000000757411     
6.675000190735     0.348515987396     0.000000768343     
6.780000209808     0.353803992271     0.000000779782     
6.885000228882     0.358925998211     0.000000791010     
6.989999771118     0.364380002022     0.000000801267     
7.094999790192     0.369502991438     0.000000812241     
7.199999809265     0.374790996313     0.000000823089     
7.304999828339     0.380079001188     0.000000832924     
7.409999847412     0.385367006063     0.000000842970     
7.514999866486     0.390489995480     0.000000854155     
7.619999885559     0.395778000355     0.000000864075     
7.724999904633     0.401066005230     0.000000873910     
7.829999923706     0.406354010105     0.000000884251     
7.934999942780     0.411641985178     0.000000893748     
8.039999961853     0.416765004396     0.000000902950     
8.145000457764     0.422053009272     0.000000912996     
8.250000000000     0.427341014147     0.000000922240     
8.354999542236     0.432628989220     0.000000930851     
8.460000038147     0.437916994095     0.000000939630     
8.564999580383     0.443204998970     0.000000948705     
8.670000076294     0.448493003845     0.000000956683     
8.774999618530     0.453615993261     0.000000964829     
8.880000114441     0.458903998137     0.000000972891     
8.984999656677     0.464192003012     0.000000980574     
9.090000152588     0.469314992428     0.000000987749     
9.194999694824     0.474768012762     0.000000995305     
9.300000190735     0.479891002178     0.000001002058     
9.404999732971     0.485179007053     0.000001008263     
9.510000228882     0.490467011929     0.000001015059     
9.614999771118     0.495754987001     0.000001021686     
9.720000267029     0.501043021679     0.000001027004     
9.824999809265     0.506331026554     0.000001032703     
9.930000305176     0.511453986168     0.000001038865     
10.034999847412     0.516741991043     0.000001044352     
10.095000267029     0.525830984116     0.000001051539     
10.199999809265     0.531118988991     0.000001056167     
10.305000305176     0.536406993866     0.000001060794     
10.409999847412     0.541694998741     0.000001066192     
10.515000343323     0.546983003616     0.000001071205     
10.619999885559     0.552271008492     0.000001075447     
10.725000381470     0.557394027710     0.000001080845     
10.829999923706     0.562681972980     0.000001086244     
10.935000419617     0.567969977856     0.000001091256     
11.039999961853     0.573257982731     0.000001096269     
11.145000457764     0.578545987606     0.000001102053     
11.250000000000     0.583833992481     0.000001107066     
11.354999542236     0.589121997356     0.000001112465     
11.460000038147     0.594245016575     0.000001118249     
11.564999580383     0.599533021450     0.000001123262     
11.670000076294     0.604821026325     0.000001128660     
11.774999618530     0.610108971596     0.000001134830     
11.880000114441     0.615396976471     0.000001140999     
11.984999656677     0.620684981346     0.000001146012     
12.090000152588     0.625972986221     0.000001152182     
12.194999694824     0.631260991096     0.000001158737     
12.300000190735     0.636548995972     0.000001164521     
12.404999732971     0.641672015190     0.000001170305     
12.510000228882     0.646960020065     0.000001177246     
12.614999771118     0.652248024940     0.000001183416     
12.720000267029     0.657535970211     0.000001189585     
12.824999809265     0.662823975086     0.000001196141     
12.930000305176     0.668111979961     0.000001202310     
13.034999847412     0.673234999180     0.000001208094     
13.140000343323     0.678523004055     0.000001215035     
13.244999885559     0.683811008930     0.000001221590     
13.350000381470     0.689099013805     0.000001226989     
13.454999923706     0.694387018681     0.000001232773     
13.560000419617     0.699675023556     0.000001239328     
13.664999961853     0.704963028431     0.000001244726     
13.770000457764     0.710250973701     0.000001250125     
13.875000000000     0.715373992920     0.000001256680     
13.979999542236     0.720661997795     0.000001261693     
14.085000038147     0.725950002670     0.000001266706     
14.189999580383     0.731238007545     0.000001272104     
14.295000076294     0.736526012421     0.000001277117     
14.399999618530     0.741814017296     0.000001281744     
14.505000114441     0.747102022171     0.000001287143     
14.609999656677     0.752224981785     0.000001291384     
14.715000152588     0.757678985596     0.000001295626     
14.819999694824     0.762800991535     0.000001299868     
14.925000190735     0.768088996410     0.000001303724     
15.029999732971     0.773377001286     0.000001307580     
15.135000228882     0.778666019440     0.000001311436     
15.239999771118     0.783788025379     0.000001314906     
15.345000267029     0.789242029190     0.000001318377     
15.449999809265     0.794363975525     0.000001321076     
15.555000305176     0.799651980400     0.000001324546     
15.659999847412     0.804940998554     0.000001327631     
15.765000343323     0.810229003429     0.000001329945     
15.869999885559     0.815351009369     0.000001333030     
15.975000381470     0.820639014244     0.000001335729     
16.079999923706     0.825927019119     0.000001337271     
16.184999465942     0.831215977669     0.000001339585     
16.290000915527     0.836669027805     0.000001341898     
16.395000457764     0.841791987419     0.000001343826     
16.500000000000     0.847079992294     0.000001345369     
16.604999542236     0.852367997169     0.000001347682     
16.709999084473     0.857491016388     0.000001349225     
16.815000534058     0.862779021263     0.000001350767     
16.920000076294     0.868232011795     0.000001352695     
17.024999618530     0.873354971409     0.000001354238     
17.129999160767     0.878642976284     0.000001355009     
17.235000610352     0.883930981159     0.000001356551     
17.340000152588     0.889218986034     0.000001358479     
17.444999694824     0.894342005253     0.000001359251     
17.549999237061     0.899794995785     0.000001360407     
17.655000686646     0.904918015003     0.000001361950     
17.760000228882     0.910371005535     0.000001363107     
17.864999771118     0.915494024754     0.000001364263     
17.969999313354     0.920782029629     0.000001365806     
18.075000762939     0.926069974899     0.000001367348     
18.180000305176     0.931357979774     0.000001368505     
18.284999847412     0.936645984650     0.000001370433     
18.389999389648     0.941769003868     0.000001372361     
18.495000839233     0.947057008743     0.000001373903     
18.600000381470     0.952509999275     0.000001375832     
18.704999923706     0.957633018494     0.000001378916     
18.809999465942     0.962921023369     0.000001380844     
18.915000915527     0.968043982983     0.000001383158     
19.020000457764     0.973331987858     0.000001386243     
19.125000000000     0.978784978390     0.000001388942     
19.229999542236     0.984072983265     0.000001392027     
19.334999084473     0.989196002483     0.000001395497     
19.440000534058     0.994484007359     0.000001400124     
19.545000076294     0.999772012234     0.000001402438     
19.649999618530     1.004894971848     0.000001407451     
19.754999160767     1.010347962379     0.000001411693     
19.860000610352     1.015470981598     0.000001415934     
19.965000152588     1.020758986473     0.000001420561     
20.069999694824     1.026046991348     0.000001426345     
20.174999237061     1.031334996223     0.000001431744     
20.280000686646     1.036623001099     0.000001437142     
20.385000228882     1.041911005974     0.000001443312     
20.489999771118     1.047199010849     0.000001449482     
20.594999313354     1.052322030067     0.000001456037     
20.700000762939     1.057775020599     0.000001462978     
20.805000305176     1.063063979149     0.000001470304     
20.909999847412     1.068186044693     0.000001478016     
21.014999389648     1.073474049568     0.000001486114     
21.120000839233     1.078762054443     0.000001494983     
21.225000381470     1.084050059319     0.000001502695     
21.329999923706     1.089172959328     0.000001512335     
21.434999465942     1.094460964203     0.000001522361     
21.540000915527     1.099748969078     0.000001532001     
21.645000457764     1.105036973953     0.000001542026     
21.750000000000     1.110326051712     0.000001553209     
21.854999542236     1.115614056587     0.000001564391     
21.959999084473     1.120901942253     0.000001575959     
22.065000534058     1.126189947128     0.000001589070     
22.170000076294     1.131477952003     0.000001601409     
22.274999618530     1.136600971222     0.000001614134     
22.379999160767     1.141888976097     0.000001628787     
22.485000610352     1.147176980972     0.000001644211     
22.590000152588     1.152299046516     0.000001659250     
22.694999694824     1.157752990723     0.000001675445     
22.799999237061     1.162876009941     0.000001692412     
22.905000686646     1.168329000473     0.000001710149     
23.010000228882     1.173452019691     0.000001728658     
23.114999771118     1.178740024567     0.000001747938     
23.219999313354     1.184028029442     0.000001772617     
23.325000762939     1.189316034317     0.000001791126     
23.430000305176     1.194604039192     0.000001813877     
23.534999847412     1.198405027390     0.000001816961     
23.639999389648     1.194439053535     0.000001741383     
23.745000839233     1.189151048660     0.000001670047     
23.850000381470     1.183861970901     0.000001606036     
23.954999923706     1.178740024567     0.000001547039     
24.059999465942     1.173452019691     0.000001494212     
24.165000915527     1.168164014816     0.000001446397     
24.270000457764     1.162876009941     0.000001401281     
24.375000000000     1.157587051392     0.000001360407     
24.479999542236     1.152464985847     0.000001322618     
24.584999084473     1.147176980972     0.000001287914     
24.690000534058     1.141888976097     0.000001254752     
24.795000076294     1.136600971222     0.000001225061     
24.899999618530     1.131312012672     0.000001196912     
25.004999160767     1.126024007797     0.000001169534     
25.110000610352     1.120736002922     0.000001144855     
25.215000152588     1.115614056587     0.000001121719     
25.319999694824     1.110159993172     0.000001099354     
25.424999237061     1.105036973953     0.000001078146     
25.530000686646     1.099748969078     0.000001058480     
25.635000228882     1.094460964203     0.000001039586     
25.739999771118     1.089172959328     0.000001021462     
25.844999313354     1.083884954453     0.000001004881     
25.950000762939     1.078596949577     0.000000988686     
26.055000305176     1.073308944702     0.000000973262     
26.159999847412     1.068186044693     0.000000957838     
26.264999389648     1.062898039818     0.000000943956     
26.370000839233     1.057610034943     0.000000929689     
26.475000381470     1.052322030067     0.000000916578     
26.579999923706     1.047199010849     0.000000904239     
26.684999465942     1.041911005974     0.000000892285     
26.790000915527     1.036623001099     0.000000880332     
26.895000457764     1.031334996223     0.000000869149     
27.000000000000     1.026046991348     0.000000858738     
27.104999542236     1.020758986473     0.000000847555     
27.209999084473     1.015470981598     0.000000837915     
27.315000534058     1.010182976723     0.000000827890     
27.420000076294     1.005059957504     0.000000817864     
27.524999618530     0.999772012234     0.000000808995     
27.629999160767     0.994484007359     0.000000800126     
27.735000610352     0.989196002483     0.000000790872     
27.840000152588     0.983907997608     0.000000782388     
27.944999694824     0.978619992733     0.000000774291     
28.049999237061     0.973496973515     0.000000766193     
28.155000686646     0.968043982983     0.000000757710     
28.260000228882     0.962921023369     0.000000750383     
28.364999771118     0.957633018494     0.000000742671     
28.469999313354     0.952345013618     0.000000734959     
28.575000762939     0.947221994400     0.000000728018     
28.680000305176     0.941769003868     0.000000720692     
28.784999847412     0.936645984650     0.000000713366     
28.889999389648     0.931357979774     0.000000706810     
28.995000839233     0.926069974899     0.000000700255     
29.100000381470     0.920782029629     0.000000693314     
29.204999923706     0.915494024754     0.000000686759     
29.309999465942     0.910206019878     0.000000680589     
29.415000915527     0.904918015003     0.000000674034     
29.520000457764     0.899794995785     0.000000667864     
29.625000000000     0.894506990910     0.000000661695     
29.729999542236     0.889218986034     0.000000655525     
29.834999084473     0.883930981159     0.000000648970     
29.940000534058     0.878642976284     0.000000643957     
30.045000076294     0.873354971409     0.000000638173     
30.149999618530     0.868067026138     0.000000631232     
30.254999160767     0.862779021263     0.000000625834     
30.360000610352     0.857656002045     0.000000620821     
30.465000152588     0.852367997169     0.000000614651     
30.569999694824     0.847079992294     0.000000608867     
30.674999237061     0.841791987419     0.000000603854     
30.780000686646     0.836503982544     0.000000598070     
30.885000228882     0.831381022930     0.000000592286     
30.989999771118     0.825927019119     0.000000587273     
31.094999313354     0.820639014244     0.000000581875     
31.200000762939     0.815517008305     0.000000575705     
31.305000305176     0.810229003429     0.000000570692     
31.409999847412     0.804940998554     0.000000566065     
31.514999389648     0.799651980400     0.000000559896     
31.620000839233     0.794529974461     0.000000554497     
31.725000381470     0.789242029190     0.000000549099     
31.829999923706     0.783954024315     0.000000543315     
31.934999465942     0.778500020504     0.000000537916     
32.040000915527     0.773377001286     0.000000532903     
32.145000457764     0.768088996410     0.000000527119     
32.250000000000     0.762800991535     0.000000521721     
32.354999542236     0.757512986660     0.000000516322     
32.459999084473     0.752224981785     0.000000511695     
32.564998626709     0.747102022171     0.000000505526     
32.669998168945     0.741814017296     0.000000500513     
32.775001525879     0.736526012421     0.000000495114     
32.880001068115     0.731238007545     0.000000489330     
32.985000610352     0.725950002670     0.000000483932     
33.090000152588     0.720661997795     0.000000478919     
33.194999694824     0.715373992920     0.000000473135     
33.299999237061     0.710085988045     0.000000467736     
33.404998779297     0.704797983170     0.000000462724     
33.509998321533     0.699675023556     0.000000456940     
33.615001678467     0.694387018681     0.000000451541     
33.720001220703     0.689099013805     0.000000446914     
33.825000762939     0.683811008930     0.000000441130     
33.930000305176     0.678687989712     0.000000435346     
34.034999847412     0.673399984837     0.000000429947     
34.139999389648     0.668111979961     0.000000425320     
34.244998931885     0.662823975086     0.000000419536     
34.349998474121     0.657535970211     0.000000414138     
34.455001831055     0.652248024940     0.000000408739     
34.560001373291     0.646960020065     0.000000403726     
34.665000915527     0.641672015190     0.000000397942     
34.770000457764     0.636384010315     0.000000393315     
34.875000000000     0.631260991096     0.000000388302     
34.979999542236     0.625972986221     0.000000383289     
35.084999084473     0.620684981346     0.000000379433     
35.189998626709     0.615396976471     0.000000374806     
35.294998168945     0.610108971596     0.000000369408     
35.400001525879     0.604821026325     0.000000365166     
