
Cycle 1
Physical Cycle 1
Step 1

Time (s),          Potential (V),         Current (A)
0.104999996722     0.001818999997     -0.000001421846     
0.209999993443     0.007110000122     -0.000001341796     
0.314999997616     0.012400999665     -0.000001265557     
0.419999986887     0.017692999914     -0.000001196943     
0.449999988079     0.027778999880     -0.000001163991     
0.555000007153     0.033070001751     -0.000001109861     
0.660000026226     0.038196001202     -0.000001058802     
0.764999985695     0.043653000146     -0.000001011582     
0.870000004768     0.048944000155     -0.000000966281     
0.975000023842     0.054069999605     -0.000000922133     
1.080000042915     0.059360999614     -0.000000881055     
1.184999942780     0.064652003348     -0.000000841897     
1.289999961853     0.069778002799     -0.000000804659     
1.394999980927     0.075069002807     -0.000000769340     
1.500000000000     0.080360002816     -0.000000735172     
1.605000019073     0.085652001202     -0.000000701389     
1.710000038147     0.090943001211     -0.000000669141     
1.815000057220     0.096069000661     -0.000000639197     
1.919999957085     0.101360000670     -0.000000610020     
2.025000095367     0.106816001236     -0.000000581228     
2.130000114441     0.111942000687     -0.000000553203     
2.234999895096     0.117233999074     -0.000000526714     
2.339999914169     0.122524999082     -0.000000500992     
2.444999933243     0.127816006541     -0.000000476038     
2.549999952316     0.132942005992     -0.000000452620     
2.654999971390     0.138233006001     -0.000000429970     
2.759999990463     0.143524006009     -0.000000406168     
2.865000009537     0.148815006018     -0.000000384670     
2.970000028610     0.154107004404     -0.000000363939     
3.075000047684     0.159398004413     -0.000000343592     
3.180000066757     0.164524003863     -0.000000324013     
3.285000085831     0.169815003872     -0.000000304818     
3.349999904633     0.178248003125     -0.000000283191     
3.454999923706     0.183539003134     -0.000000264893     
3.559999942780     0.188830003142     -0.000000248610     
3.664999961853     0.193956002593     -0.000000232075     
3.769999980927     0.199247002602     -0.000000215457     
3.875000000000     0.204539000988     -0.000000199048     
3.980000019073     0.209830000997     -0.000000183772     
4.085000038147     0.215121001005     -0.000000168076     
4.190000057220     0.220412001014     -0.000000153640     
4.295000076294     0.225703001022     -0.000000140043     
4.400000095367     0.230829000473     -0.000000126236     
4.505000114441     0.236120998859     -0.000000111295     
4.610000133514     0.241245999932     -0.000000097908     
4.715000152588     0.246537998319     -0.000000085654     
4.820000171661     0.251828998327     -0.000000072728     
4.925000190735     0.257120013237     -0.000000060180     
5.030000209808     0.262410998344     -0.000000049059     
5.135000228882     0.267702013254     -0.000000036637     
5.239999771118     0.272994011641     -0.000000024550     
5.344999790192     0.278120011091     -0.000000013681     
5.449999809265     0.283410996199     -0.000000003147     
5.554999828339     0.288702011108     0.000000007722     
5.644999980927     0.295646995306     0.000000020404     
5.750000000000     0.300772994757     0.000000031120     
5.855000019073     0.305898010731     0.000000041099     
5.960000038147     0.311190009117     0.000000051513     
6.065000057220     0.316480994225     0.000000061930     
6.170000076294     0.321440994740     0.000000071772     
6.275000095367     0.326732993126     0.000000081518     
6.340000152588     0.335496008396     0.000000103196     
6.445000171661     0.340786993504     0.000000111799     
6.550000190735     0.346078991890     0.000000120864     
6.655000209808     0.351370006800     0.000000131272     
6.760000228882     0.356496006250     0.000000141260     
6.864999771118     0.361786991358     0.000000151122     
6.969999790192     0.367078006268     0.000000160732     
7.074999809265     0.372368991375     0.000000170217     
7.179999828339     0.377660989761     0.000000178946     
7.284999847412     0.382786005735     0.000000188682     
7.389999866486     0.388078004122     0.000000199215     
7.494999885559     0.393368989229     0.000000208616     
7.599999904633     0.398660004139     0.000000217765     
7.704999923706     0.403950989246     0.000000227459     
7.809999942780     0.409076988697     0.000000236818     
7.914999961853     0.414368003607     0.000000245882     
8.020000457764     0.419660001993     0.000000256080     
8.125000000000     0.424784988165     0.000000266572     
8.229999542236     0.430242002010     0.000000275721     
8.335000038147     0.435368001461     0.000000285037     
8.439999580383     0.440658986568     0.000000295277     
8.545000076294     0.445950001478     0.000000305811     
8.649999618530     0.451076000929     0.000000315673     
8.755000114441     0.456533014774     0.000000326080     
8.859999656677     0.461659014225     0.000000336404     
8.965000152588     0.466949999332     0.000000345889     
9.069999694824     0.472241014242     0.000000356129     
9.175000190735     0.477531999350     0.000000367837     
9.279999732971     0.482823014259     0.000000378455     
9.385000228882     0.488115012646     0.000000388988     
9.489999771118     0.493405997753     0.000000399858     
9.595000267029     0.498531997204     0.000000410349     
9.699999809265     0.503822982311     0.000000420841     
9.805000305176     0.509114027023     0.000000433095     
9.909999847412     0.514405012131     0.000000444804     
10.015000343323     0.519697010517     0.000000455505     
10.119999885559     0.524821996689     0.000000466249     
10.225000381470     0.530113995075     0.000000478377     
10.329999923706     0.535404980183     0.000000489918     
10.435000419617     0.540530979633     0.000000501543     
10.539999961853     0.545822024345     0.000000513629     
10.645000457764     0.551113009453     0.000000525590     
10.750000000000     0.556403994560     0.000000536711     
10.854999542236     0.561695992947     0.000000548629     
10.960000038147     0.566821992397     0.000000561723     
11.064999580383     0.572112977505     0.000000574145     
11.170000076294     0.577404022217     0.000000586273     
11.274999618530     0.582695007324     0.000000598737     
11.380000114441     0.587821006775     0.000000611202     
11.484999656677     0.593111991882     0.000000623498     
11.590000152588     0.598402976990     0.000000636801     
11.694999694824     0.603694975376     0.000000650272     
11.800000190735     0.608986020088     0.000000662695     
11.904999732971     0.614277005196     0.000000675285     
12.010000228882     0.619403004646     0.000000688504     
12.114999771118     0.624693989754     0.000000701849     
12.220000267029     0.629984974861     0.000000715111     
12.324999809265     0.635276973248     0.000000729002     
12.430000305176     0.640568017960     0.000000742515     
12.534999847412     0.645694017410     0.000000754811     
12.640000343323     0.650985002518     0.000000767905     
12.744999885559     0.656275987625     0.000000782299     
12.850000381470     0.661566972733     0.000000796148     
12.954999923706     0.666858971119     0.000000809326     
13.060000419617     0.672150015831     0.000000823049     
13.164999961853     0.677441000938     0.000000836310     
13.270000457764     0.682731986046     0.000000848984     
13.375000000000     0.687857985497     0.000000862330     
13.479999542236     0.693148970604     0.000000876263     
13.585000038147     0.698441028595     0.000000888727     
13.689999580383     0.703566014767     0.000000901107     
13.795000076294     0.708858013153     0.000000913067     
13.899999618530     0.714148998260     0.000000926035     
14.005000114441     0.719439983368     0.000000937912     
14.109999656677     0.724731028080     0.000000950376     
14.215000152588     0.730022013187     0.000000962294     
14.319999694824     0.735148012638     0.000000972996     
14.425000190735     0.740440011024     0.000000983781     
14.529999732971     0.745730996132     0.000000995909     
14.635000228882     0.751021981239     0.000001006569     
14.739999771118     0.756147980690     0.000001017144     
14.845000267029     0.761439025402     0.000001027888     
14.960000038147     0.773178994656     0.000001066480     
15.064999580383     0.778469979763     0.000001075310     
15.170000076294     0.783595979214     0.000001084523     
15.274999618530     0.788887023926     0.000001094505     
15.380000114441     0.794178009033     0.000001102950     
15.484999656677     0.799470007420     0.000001111396     
15.590000152588     0.804596006870     0.000001120226     
15.694999694824     0.810051977634     0.000001130591     
15.800000190735     0.815343022346     0.000001139421     
15.904999732971     0.820469021797     0.000001147483     
16.010000228882     0.825595021248     0.000001156697     
16.114999771118     0.831052005291     0.000001165526     
16.219999313354     0.836342990398     0.000001173972     
16.325000762939     0.841633975506     0.000001183186     
16.430000305176     0.846759974957     0.000001192784     
16.534999847412     0.852051019669     0.000001201613     
16.639999389648     0.857342004776     0.000001208907     
16.745000839233     0.862634003162     0.000001218505     
16.850000381470     0.867758989334     0.000001227719     
16.954999923706     0.873050987720     0.000001237316     
17.059999465942     0.878341972828     0.000001246530     
17.165000915527     0.883633017540     0.000001254976     
17.270000457764     0.888924002647     0.000001263038     
17.375000000000     0.894216001034     0.000001272251     
17.479999542236     0.899506986141     0.000001281465     
17.584999084473     0.904797971249     0.000001291062     
17.690000534058     0.909923970699     0.000001299508     
17.795000076294     0.915215015411     0.000001309106     
17.899999618530     0.920506000519     0.000001317168     
18.004999160767     0.925796985626     0.000001325230     
18.110000610352     0.931088984013     0.000001334443     
18.215000152588     0.936380028725     0.000001345193     
18.319999694824     0.941506028175     0.000001353638     
18.424999237061     0.946797013283     0.000001362084     
18.530000686646     0.952087998390     0.000001371298     
18.635000228882     0.957378983498     0.000001381279     
18.739999771118     0.962504982948     0.000001390109     
18.844999313354     0.967962026596     0.000001400091     
18.950000762939     0.973088026047     0.000001410456     
19.055000305176     0.978379011154     0.000001419286     
19.159999847412     0.983669996262     0.000001428499     
19.264999389648     0.988960981369     0.000001440016     
19.370000839233     0.994252979755     0.000001450766     
19.475000381470     0.999544024467     0.000001461899     
19.579999923706     1.004670023918     0.000001472648     
19.684999465942     1.009961009026     0.000001484549     
19.790000915527     1.015251994133     0.000001496066     
19.895000457764     1.020542979240     0.000001509503     
20.000000000000     1.025835037231     0.000001523707     
20.104999542236     1.031126022339     0.000001537528     
20.209999084473     1.036252021790     0.000001551732     
20.315000534058     1.041707992554     0.000001567472     
20.420000076294     1.046833992004     0.000001584364     
20.524999618530     1.052124977112     0.000001601255     
20.629999160767     1.057415962219     0.000001620066     
20.735000610352     1.062708020210     0.000001640413     
20.840000152588     1.067999005318     0.000001659992     
20.944999694824     1.073125004768     0.000001680723     
21.049999237061     1.078415989876     0.000001704141     
21.155000686646     1.083706974983     0.000001729862     
21.260000228882     1.088997960091     0.000001754816     
21.364999771118     1.094290018082     0.000001782073     
21.469999313354     1.099414944649     0.000001810866     
21.575000762939     1.104707002640     0.000001841194     
21.680000305176     1.109997987747     0.000001873058     
21.784999847412     1.115288972855     0.000001909145     
21.889999389648     1.120579957962     0.000001945615     
21.995000839233     1.125872015953     0.000001985157     
22.100000381470     1.130996942520     0.000002025467     
22.204999923706     1.136289000511     0.000002068848     
22.309999465942     1.141579985619     0.000002114148     
22.415000915527     1.146870970726     0.000002163288     
22.520000457764     1.152161955833     0.000002214731     
22.625000000000     1.157454013824     0.000002268477     
22.729999542236     1.162579059601     0.000002324143     
22.834999084473     1.167870998383     0.000002384799     
22.940000534058     1.173161983490     0.000002447375     
23.045000076294     1.178452968597     0.000002512639     
23.149999618530     1.183743953705     0.000002581357     
23.254999160767     1.189035058022     0.000002653915     
23.360000610352     1.194161057472     0.000002728392     
23.465000152588     1.197963953018     0.000002734918     
23.569999694824     1.193665027618     0.000002493827     
23.674999237061     1.188374042511     0.000002268093     
23.780000686646     1.183083057404     0.000002068848     
23.885000228882     1.177957057953     0.000001893021     
23.989999771118     1.172665953636     0.000001737157     
24.094999313354     1.167374968529     0.000001596265     
24.200000762939     1.162083029747     0.000001470729     
24.305000305176     1.156957030296     0.000001358629     
24.409999847412     1.151666045189     0.000001256127     
24.514999389648     1.146374940872     0.000001163223     
24.620000839233     1.141083955765     0.000001079532     
24.725000381470     1.135792970657     0.000001004288     
24.829999923706     1.130666971207     0.000000935185     
24.934999465942     1.125375986099     0.000000873761     
25.040000915527     1.120084047318     0.000000816943     
25.145000457764     1.114792943001     0.000000764733     
25.250000000000     1.109501957893     0.000000717129     
25.354999542236     1.104210972786     0.000000674516     
25.459999084473     1.098919034004     0.000000636126     
25.565000534058     1.093793988228     0.000000600423     
25.670000076294     1.088502049446     0.000000567791     
25.774999618530     1.083210945129     0.000000537079     
25.879999160767     1.077919960022     0.000000509054     
25.985000610352     1.072628974915     0.000000484100     
26.090000152588     1.067502975464     0.000000462218     
26.194999694824     1.062211990356     0.000000440719     
26.299999237061     1.056920051575     0.000000420757     
26.405000686646     1.051628947258     0.000000402329     
26.510000228882     1.046337962151     0.000000385822     
26.614999771118     1.041046977043     0.000000369314     
26.719999313354     1.035920977592     0.000000355877     
26.825000762939     1.030629992485     0.000000342824     
26.930000305176     1.025338053703     0.000000329772     
26.959999084473     1.015087008476     0.000000297795     
27.065000534058     1.009796023369     0.000000287975     
27.170000076294     1.004670023918     0.000000279665     
27.274999618530     0.999378025532     0.000000270391     
27.379999160767     0.994086980820     0.000000261032     
27.485000610352     0.988795995712     0.000000252807     
27.590000152588     0.983505010605     0.000000244917     
27.694999694824     0.978214025497     0.000000236818     
27.799999237061     0.973088026047     0.000000230187     
27.905000686646     0.967796027660     0.000000224228     
28.010000228882     0.962504982948     0.000000217009     
28.114999771118     0.957213997841     0.000000210085     
28.219999313354     0.952087998390     0.000000204168     
28.325000762939     0.946797013283     0.000000198670     
28.430000305176     0.941506028175     0.000000192459     
28.534999847412     0.936214983463     0.000000187591     
28.639999389648     0.930922985077     0.000000181883     
28.745000839233     0.925631999969     0.000000175756     
28.850000381470     0.920341014862     0.000000170888     
28.954999923706     0.915215015411     0.000000166272     
29.059999465942     0.909923970699     0.000000161446     
29.165000915527     0.904632985592     0.000000156158     
29.270000457764     0.899340987206     0.000000151164     
29.375000000000     0.894050002098     0.000000146338     
29.479999542236     0.888759016991     0.000000140210     
29.584999084473     0.883633017540     0.000000135888     
29.690000534058     0.878341972828     0.000000132237     
29.795000076294     0.873050987720     0.000000127075     
29.899999618530     0.867758989334     0.000000122081     
30.004999160767     0.862468004227     0.000000116835     
30.110000610352     0.857342004776     0.000000112135     
30.215000152588     0.851885974407     0.000000106973     
30.319999694824     0.846759974957     0.000000101685     
30.424999237061     0.841468989849     0.000000097069     
30.530000686646     0.836176991463     0.000000091529     
30.635000228882     0.831052005291     0.000000085360     
30.739999771118     0.825760006905     0.000000080072     
30.844999313354     0.820469021797     0.000000075288     
30.950000762939     0.815177977085     0.000000068783     
31.055000305176     0.809886991978     0.000000063747     
31.159999847412     0.804760992527     0.000000056613     
31.264999389648     0.799304008484     0.000000049730     
31.370000839233     0.794178009033     0.000000043561     
31.475000381470     0.788887023926     0.000000038399     
31.579999923706     0.783595979214     0.000000031349     
31.684999465942     0.778304994106     0.000000024257     
31.790000915527     0.773014008999     0.000000017290     
31.895000457764     0.767722010612     0.000000010450     
31.979999542236     0.760447025299     -0.000000000168     
32.084999084473     0.755321025848     -0.000000006805     
32.189998626709     0.750195026398     -0.000000012615     
32.294998168945     0.744903981686     -0.000000019760     
32.400001525879     0.739612996578     -0.000000027339     
32.505001068115     0.734486997128     -0.000000034190     
32.610000610352     0.729196012020     -0.000000040721     
32.715000152588     0.724070012569     -0.000000048099     
32.819999694824     0.718779027462     -0.000000055491     
32.924999237061     0.713653028011     -0.000000062213     
33.029998779297     0.708361983299     -0.000000069872     
33.134998321533     0.703235983849     -0.000000077345     
33.240001678467     0.697943985462     -0.000000085066     
33.319999694824     0.689841985703     -0.000000101643     
33.424999237061     0.684715986252     -0.000000106973     
33.529998779297     0.679425001144     -0.000000115030     
33.634998321533     0.674134016037     -0.000000123550     
33.740001678467     0.668842971325     -0.000000131439     
33.845001220703     0.663551986217     -0.000000137944     
33.950000762939     0.658259987831     -0.000000145414     
34.055000305176     0.653133988380     -0.000000152758     
34.159999847412     0.647678017616     -0.000000159053     
34.264999389648     0.642552018166     -0.000000164131     
34.369998931885     0.637260973454     -0.000000168580     
34.474998474121     0.631969988346     -0.000000170468     
34.580001831055     0.626677989960     -0.000000170552     
34.685001373291     0.621553003788     -0.000000170175     
34.790000915527     0.616096019745     -0.000000167950     
34.895000457764     0.610970020294     -0.000000162663     
35.000000000000     0.605678975582     -0.000000155528     
35.104999542236     0.600387990475     -0.000000147597     
