
Cycle 1
Physical Cycle 1
Step 1

Time (s),          Potential (V),         Current (A)
0.104999996722     0.002475999994     -0.000000328576     
0.209999993443     0.007922000252     -0.000000294190     
0.314999997616     0.013203999959     -0.000000271266     
0.419999986887     0.018319999799     -0.000000252163     
0.449999988079     0.028552999720     -0.000000199649     
0.555000007153     0.033668998629     -0.000000183878     
0.660000026226     0.038950998336     -0.000000169260     
0.764999985695     0.044231999665     -0.000000156950     
0.795000016689     0.054299999028     -0.000000132439     
0.899999976158     0.059746000916     -0.000000121795     
1.004999995232     0.064862996340     -0.000000111866     
1.110000014305     0.070143997669     -0.000000103200     
1.215000033379     0.075425997376     -0.000000094112     
1.320000052452     0.080541998148     -0.000000085867     
1.424999952316     0.085822999477     -0.000000078925     
1.529999971390     0.091104999185     -0.000000071478     
1.634999990463     0.096386000514     -0.000000064032     
1.740000009537     0.101668000221     -0.000000058394     
1.845000028610     0.106949001551     -0.000000052757     
1.950000047684     0.112231001258     -0.000000045352     
2.055000066757     0.117512002587     -0.000000040556     
2.160000085831     0.122792996466     -0.000000035339     
2.265000104904     0.128075003624     -0.000000029786     
2.369999885559     0.133191004395     -0.000000024990     
2.474999904633     0.138473004103     -0.000000020152     
2.579999923706     0.143919005990     -0.000000015398     
2.670000076294     0.150850996375     -0.000000008859     
2.775000095367     0.156131997705     -0.000000004866     
2.880000114441     0.161413997412     -0.000000000751     
2.984999895096     0.166529998183     0.000000003580     
3.089999914169     0.171811997890     0.000000007758     
3.194999933243     0.176927998662     0.000000011423     
3.299999952316     0.182209998369     0.000000015404     
3.404999971390     0.187490999699     0.000000019065     
3.509999990463     0.192772001028     0.000000022603     
3.615000009537     0.198054000735     0.000000026858     
3.720000028610     0.203170001507     0.000000031366     
3.825000047684     0.208452001214     0.000000035023     
3.930000066757     0.213733002543     0.000000039120     
4.034999847412     0.218850001693     0.000000043463     
4.139999866486     0.224296003580     0.000000047728     
4.244999885559     0.229412004352     0.000000051817     
4.349999904633     0.234694004059     0.000000056129     
4.454999923706     0.239975005388     0.000000059906     
4.559999942780     0.245092004538     0.000000063756     
4.664999961853     0.250373005867     0.000000068765     
4.769999980927     0.255654990673     0.000000073204     
4.875000000000     0.260771006346     0.000000077585     
4.980000019073     0.266052007675     0.000000082683     
5.085000038147     0.271169006824     0.000000087618     
5.144999980927     0.280411005020     0.000000097646     
5.250000000000     0.285692989826     0.000000101559     
5.355000019073     0.290973991156     0.000000106229     
5.460000038147     0.296256005764     0.000000111866     
5.565000057220     0.301371991634     0.000000117335     
5.670000076294     0.306652992964     0.000000122468     
5.775000095367     0.311935007572     0.000000128653     
5.880000114441     0.317216008902     0.000000135089     
5.985000133514     0.322333008051     0.000000140685     
6.090000152588     0.327614009380     0.000000146743     
6.195000171661     0.333061009645     0.000000153937     
6.300000190735     0.338176995516     0.000000159869     
6.405000209808     0.343457996845     0.000000166474     
6.510000228882     0.348740011454     0.000000174047     
6.614999771118     0.354021012783     0.000000181115     
6.719999790192     0.359302997589     0.000000188014     
6.824999809265     0.364583998919     0.000000196050     
6.929999828339     0.369866013527     0.000000203665     
7.034999847412     0.374981999397     0.000000211406     
7.139999866486     0.380263000727     0.000000219694     
7.244999885559     0.385544985533     0.000000227982     
7.349999904633     0.390825986862     0.000000236228     
7.454999923706     0.396108001471     0.000000245315     
7.559999942780     0.401389002800     0.000000254234     
7.664999961853     0.406670987606     0.000000262816     
7.769999980927     0.411951988935     0.000000272408     
7.875000000000     0.417068004608     0.000000282211     
7.980000019073     0.422349989414     0.000000291046     
8.085000038147     0.427630990744     0.000000300975     
8.189999580383     0.432913005352     0.000000311576     
8.295000076294     0.438194006681     0.000000321295     
8.399999618530     0.443475991488     0.000000331392     
8.505000114441     0.448756992817     0.000000342372     
8.609999656677     0.454039007425     0.000000352932     
8.715000152588     0.459154993296     0.000000363281     
8.819999694824     0.464435994625     0.000000374598     
8.925000190735     0.469718009233     0.000000385537     
9.029999732971     0.474999010563     0.000000396644     
9.135000228882     0.480280995369     0.000000408255     
9.239999771118     0.485561996698     0.000000419530     
9.345000267029     0.490678012371     0.000000430721     
9.449999809265     0.496125012636     0.000000442795     
9.555000305176     0.501241028309     0.000000454407     
9.659999847412     0.506523013115     0.000000465598     
9.765000343323     0.511803984642     0.000000477924     
9.869999885559     0.517086029053     0.000000490041     
9.975000381470     0.522367000580     0.000000501400     
10.079999923706     0.527648985386     0.000000513558     
10.185000419617     0.532930016518     0.000000526179     
10.289999961853     0.538046002388     0.000000537791     
10.395000457764     0.543327987194     0.000000549571     
10.500000000000     0.548609018326     0.000000562066     
10.604999542236     0.553891003132     0.000000573888     
10.710000038147     0.559171974659     0.000000585457     
10.814999580383     0.564454019070     0.000000597952     
10.920000076294     0.569570004940     0.000000609774     
11.024999618530     0.574850976467     0.000000621554     
11.130000114441     0.580133020878     0.000000633628     
11.234999656677     0.585413992405     0.000000645240     
11.340000152588     0.590695977211     0.000000656347     
11.444999694824     0.595977008343     0.000000668168     
11.550000190735     0.601258993149     0.000000679696     
11.654999732971     0.606374979019     0.000000690424     
11.760000228882     0.611820995808     0.000000701993     
11.864999771118     0.616773009300     0.000000713226     
11.970000267029     0.622219026089     0.000000723281     
12.074999809265     0.627501010895     0.000000734093     
12.180000305176     0.632781982422     0.000000745074     
12.284999847412     0.637898981571     0.000000754834     
12.390000343323     0.643344998360     0.000000764637     
12.494999885559     0.648460984230     0.000000775365     
12.600000381470     0.653743028641     0.000000784789     
12.704999923706     0.659024000168     0.000000794128     
12.810000419617     0.664305984974     0.000000803931     
12.914999961853     0.669587016106     0.000000813229     
13.020000457764     0.674869000912     0.000000821853     
13.125000000000     0.680149972439     0.000000831151     
13.229999542236     0.685266017914     0.000000839775     
13.335000038147     0.690712988377     0.000000848274     
13.439999580383     0.695828974247     0.000000856814     
13.545000076294     0.701111018658     0.000000865102     
13.649999618530     0.706391990185     0.000000872464     
13.755000114441     0.711673974991     0.000000880963     
13.859999656677     0.716955006123     0.000000888535     
13.965000152588     0.722235977650     0.000000895519     
14.069999694824     0.727518022060     0.000000903260     
14.175000190735     0.732634007931     0.000000911296     
14.279999732971     0.737915992737     0.000000917817     
14.385000228882     0.743197023869     0.000000924969     
14.489999771118     0.748479008675     0.000000932583     
14.595000267029     0.753759980202     0.000000939315     
14.699999809265     0.759041011333     0.000000945331     
14.805000305176     0.764322996140     0.000000952946     
14.909999847412     0.769604027271     0.000000959635     
15.015000343323     0.774886012077     0.000000966408     
15.119999885559     0.780001997948     0.000000973224     
15.225000381470     0.785283982754     0.000000979577     
15.329999923706     0.790565013885     0.000000986013     
15.435000419617     0.795846998692     0.000000992955     
15.539999961853     0.801127970219     0.000000999392     
15.645000457764     0.806244015694     0.000001005408     
15.750000000000     0.811690986156     0.000001012434     
15.854999542236     0.816972017288     0.000001019165     
15.960000038147     0.822254002094     0.000001024929     
16.065000534058     0.827369987965     0.000001031871     
16.170000076294     0.832651972771     0.000001039065     
16.225000381470     0.842059016228     0.000001054026     
16.329999923706     0.847341001034     0.000001059796     
16.434999465942     0.852621972561     0.000001065951     
16.540000915527     0.857903003693     0.000001073260     
16.645000457764     0.863184988499     0.000001079800     
16.750000000000     0.868466019630     0.000001086724     
16.854999542236     0.873583018780     0.000001094033     
16.959999084473     0.878863990307     0.000001101342     
17.065000534058     0.884145975113     0.000001108266     
17.170000076294     0.889427006245     0.000001115575     
17.274999618530     0.894707977772     0.000001123653     
17.379999160767     0.899990022182     0.000001130962     
17.485000610352     0.905270993710     0.000001139040     
17.590000152588     0.910552978516     0.000001147888     
17.694999694824     0.915669023991     0.000001155966     
17.799999237061     0.920951008797     0.000001164045     
17.905000686646     0.926231980324     0.000001173662     
18.010000228882     0.931513011456     0.000001182125     
18.114999771118     0.936794996262     0.000001191357     
18.219999313354     0.942076027393     0.000001201743     
18.325000762939     0.947358012199     0.000001211360     
18.430000305176     0.952638983727     0.000001221747     
18.534999847412     0.957755982876     0.000001232903     
18.639999389648     0.963201999664     0.000001243674     
18.745000839233     0.968482971191     0.000001254829     
18.850000381470     0.973765015602     0.000001267139     
18.954999923706     0.978881001472     0.000001279449     
19.059999465942     0.984162986279     0.000001291759     
19.165000915527     0.989444017410     0.000001305992     
19.270000457764     0.994726002216     0.000001319841     
19.375000000000     1.000007033348     0.000001334074     
19.479999542236     1.005288004875     0.000001349461     
19.584999084473     1.010404944420     0.000001366002     
19.690000534058     1.015686035156     0.000001381389     
19.795000076294     1.020967960358     0.000001398315     
19.899999618530     1.026249051094     0.000001417165     
20.004999160767     1.031530976295     0.000001435245     
20.110000610352     1.036811947823     0.000001454864     
20.215000152588     1.042093038559     0.000001476021     
20.319999694824     1.047374963760     0.000001497178     
20.424999237061     1.052656054497     0.000001519105     
20.530000686646     1.057772994041     0.000001542571     
20.635000228882     1.063053965569     0.000001566421     
20.739999771118     1.068336009979     0.000001591041     
20.844999313354     1.073616981506     0.000001617199     
20.950000762939     1.078899025917     0.000001644127     
21.055000305176     1.084179997444     0.000001671824     
21.159999847412     1.089460968971     0.000001701059     
21.264999389648     1.094743013382     0.000001731064     
21.370000839233     1.099858999252     0.000001760685     
21.475000381470     1.105306029320     0.000001792998     
21.579999923706     1.110422015190     0.000001825696     
21.684999465942     1.115704059601     0.000001858779     
21.790000915527     1.120985031128     0.000001893015     
21.895000457764     1.126266002655     0.000001928791     
22.000000000000     1.131548047066     0.000001964181     
22.104999542236     1.136829018593     0.000002000726     
22.209999084473     1.142110943794     0.000002038809     
22.315000534058     1.147227048874     0.000002076508     
22.420000076294     1.152508974075     0.000002114976     
22.524999618530     1.157789945602     0.000002155368     
22.629999160767     1.163071036339     0.000002195374     
22.735000610352     1.168352961540     0.000002236535     
22.840000152588     1.173634052277     0.000002278466     
22.944999694824     1.178915977478     0.000002320396     
23.049999237061     1.184196949005     0.000002362711     
23.155000686646     1.189478993416     0.000002406564     
23.260000228882     1.194759964943     0.000002450418     
23.364999771118     1.198555946350     0.000002464266     
23.469999313354     1.194594979286     0.000002339245     
23.575000762939     1.189314007759     0.000002211146     
23.680000305176     1.184196949005     0.000002091511     
23.784999847412     1.178915977478     0.000001980338     
23.889999389648     1.173634052277     0.000001876859     
23.995000839233     1.168352961540     0.000001778380     
24.100000381470     1.163071036339     0.000001685672     
24.204999923706     1.157789945602     0.000001599504     
24.309999465942     1.152508974075     0.000001517182     
24.415000915527     1.147227048874     0.000001439476     
24.520000457764     1.142110943794     0.000001366772     
24.625000000000     1.136829018593     0.000001297914     
24.729999542236     1.131548047066     0.000001232518     
24.834999084473     1.126266002655     0.000001171354     
24.940000534058     1.120985031128     0.000001112882     
25.045000076294     1.115704059601     0.000001057488     
25.149999618530     1.110422015190     0.000001005941     
25.254999160767     1.105306029320     0.000000957086     
25.360000610352     1.099858999252     0.000000910155     
25.465000152588     1.094578027725     0.000000867071     
25.569999694824     1.089460968971     0.000000826295     
25.674999237061     1.084179997444     0.000000787057     
25.780000686646     1.078899025917     0.000000750513     
25.885000228882     1.073616981506     0.000000716661     
25.989999771118     1.068336009979     0.000000683578     
26.094999313354     1.063053965569     0.000000653573     
26.200000762939     1.057772994041     0.000000625491     
26.305000305176     1.052656054497     0.000000598564     
26.409999847412     1.047374963760     0.000000572790     
26.514999389648     1.042093038559     0.000000549709     
26.620000839233     1.036811947823     0.000000527398     
26.725000381470     1.031530976295     0.000000506625     
26.829999923706     1.026249051094     0.000000487776     
26.934999465942     1.020967960358     0.000000469311     
27.040000915527     1.015686035156     0.000000452385     
27.145000457764     1.010570049286     0.000000436613     
27.250000000000     1.005288004875     0.000000421226     
27.354999542236     1.000007033348     0.000000406608     
27.459999084473     0.994726002216     0.000000394298     
27.565000534058     0.989444017410     0.000000381604     
27.670000076294     0.984162986279     0.000000369294     
27.774999618530     0.978881001472     0.000000358523     
27.879999160767     0.973599970341     0.000000348906     
27.985000610352     0.968317985535     0.000000338519     
28.034999847412     0.959240972996     0.000000323524     
28.139999389648     0.953960001469     0.000000315910     
28.245000839233     0.948678016663     0.000000308169     
28.350000381470     0.943396985531     0.000000300007     
28.454999923706     0.938115000725     0.000000293107     
28.559999465942     0.932834029198     0.000000286881     
28.665000915527     0.927551984787     0.000000279560     
28.770000457764     0.922271013260     0.000000273292     
28.875000000000     0.917155027390     0.000000267991     
28.979999542236     0.911872982979     0.000000261807     
29.084999084473     0.906592011452     0.000000255959     
29.190000534058     0.901310026646     0.000000251163     
29.295000076294     0.896028995514     0.000000245988     
29.399999618530     0.890747010708     0.000000240687     
29.504999160767     0.885465979576     0.000000236438     
29.610000610352     0.880183994770     0.000000231600     
29.715000152588     0.875068008900     0.000000227056     
29.819999694824     0.869786977768     0.000000222933     
29.924999237061     0.864504992962     0.000000218684     
30.030000686646     0.859224021435     0.000000214014     
30.135000228882     0.853941977024     0.000000210606     
30.239999771118     0.848661005497     0.000000206862     
30.344999313354     0.843379020691     0.000000202276     
30.450000762939     0.838097989559     0.000000199121     
30.555000305176     0.832817018032     0.000000195587     
30.659999847412     0.827534973621     0.000000191296     
30.764999389648     0.822254002094     0.000000187930     
30.870000839233     0.817137002945     0.000000185027     
30.975000381470     0.811855971813     0.000000181199     
31.079999923706     0.806573987007     0.000000177455     
31.184999465942     0.801293015480     0.000000174846     
31.290000915527     0.796011984348     0.000000171270     
31.395000457764     0.790729999542     0.000000167778     
31.500000000000     0.785449028015     0.000000164918     
31.604999542236     0.780166983604     0.000000161552     
31.709999084473     0.775050997734     0.000000158270     
31.815000534058     0.769769012928     0.000000155367     
31.920000076294     0.764487981796     0.000000152254     
32.025001525879     0.759207010269     0.000000148846     
32.130001068115     0.753925025463     0.000000146364     
32.235000610352     0.748643994331     0.000000143251     
32.340000152588     0.743362009525     0.000000139591     
32.444999694824     0.738080978394     0.000000137025     
32.549999237061     0.732798993587     0.000000134500     
32.654998779297     0.727518022060     0.000000130630     
32.759998321533     0.722235977650     0.000000127769     
32.865001678467     0.717119991779     0.000000125623     
32.970001220703     0.711839020252     0.000000122174     
33.075000762939     0.706556975842     0.000000118976     
33.180000305176     0.701276004314     0.000000116578     
33.284999847412     0.695994019508     0.000000113381     
33.389999389648     0.690712988377     0.000000110310     
33.494998931885     0.685431003571     0.000000107617     
33.599998474121     0.680149972439     0.000000104714     
33.705001831055     0.674869000912     0.000000101601     
33.810001373291     0.669752001762     0.000000099035     
33.915000915527     0.664470970631     0.000000096090     
34.020000457764     0.659024000168     0.000000092850     
34.125000000000     0.653908014297     0.000000090452     
34.229999542236     0.648626029491     0.000000087802     
34.334999084473     0.643344998360     0.000000084142     
34.439998626709     0.638064026833     0.000000081912     
34.544998168945     0.632781982422     0.000000079303     
34.650001525879     0.627501010895     0.000000075770     
34.755001068115     0.622219026089     0.000000072993     
34.860000610352     0.617102980614     0.000000070763     
34.965000152588     0.611820995808     0.000000067566     
35.069999694824     0.606540024281     0.000000064410     
35.174999237061     0.601258993149     0.000000062012     
