
Cycle 1
Physical Cycle 1
Step 1

Time (s),          Potential (V),         Current (A)
0.104999996722     0.001818999997     -0.000001379915     
0.209999993443     0.007110000122     -0.000001296053     
0.314999997616     0.012400999665     -0.000001223626     
0.419999986887     0.017692999914     -0.000001158824     
0.449999988079     0.027778999880     -0.000001123297     
0.555000007153     0.033070001751     -0.000001071470     
0.660000026226     0.038196001202     -0.000001022331     
0.764999985695     0.043653000146     -0.000000975495     
0.870000004768     0.048778001219     -0.000000931730     
0.975000023842     0.054069999605     -0.000000891037     
1.080000042915     0.059360999614     -0.000000853030     
1.184999942780     0.064652003348     -0.000000815024     
1.289999961853     0.069943003356     -0.000000779321     
1.394999980927     0.075069002807     -0.000000744002     
1.500000000000     0.080360002816     -0.000000709835     
1.605000019073     0.085652001202     -0.000000674900     
1.710000038147     0.090943001211     -0.000000639197     
1.815000057220     0.096234001219     -0.000000608101     
1.919999957085     0.101360000670     -0.000000573550     
2.025000095367     0.106651000679     -0.000000536311     
2.130000114441     0.111942000687     -0.000000478342     
2.234999895096     0.117233999074     -0.000000440719     
2.339999914169     0.122524999082     -0.000000378911     
2.444999933243     0.127816006541     -0.000000330156     
2.549999952316     0.132942005992     -0.000000296756     
2.654999971390     0.138233006001     -0.000000300595     
2.759999990463     0.143524006009     -0.000000162774     
2.865000009537     0.148815006018     -0.000000121313     
2.970000028610     0.154107004404     -0.000000259134     
3.075000047684     0.159233003855     -0.000000226886     
3.174999952316     0.165847003460     -0.000000216674     
3.279999971390     0.171138003469     -0.000000141008     
3.384999990463     0.176429003477     -0.000000116751     
3.490000009537     0.181720003486     -0.000000062195     
3.595000028610     0.186846002936     0.000000007806     
3.700000047684     0.192137002945     -0.000000044778     
3.805000066757     0.197428002954     0.000000003861     
3.910000085831     0.202554002404     0.000000029670     
4.014999866486     0.207846000791     0.000000082926     
4.119999885559     0.213137000799     0.000000278239     
4.224999904633     0.218263000250     0.000000260109     
4.329999923706     0.223388999701     0.000000584721     
4.434999942780     0.228679999709     0.000000602473     
4.494999885559     0.237443000078     0.000000998145     
4.599999904633     0.242734998465     0.000001072622     
4.704999923706     0.248025998473     0.000001159768     
4.809999942780     0.253152012825     0.000001587051     
4.914999961853     0.258442997932     0.000001701070     
5.019999980927     0.263734012842     0.000001895708     
5.125000000000     0.269024997950     0.000002206669     
5.230000019073     0.274150997400     0.000002293814     
5.335000038147     0.279442012310     0.000002364836     
5.440000057220     0.284734010696     0.000002470409     
5.545000076294     0.290024995804     0.000002493060     
5.650000095367     0.295316010714     0.000002567920     
5.755000114441     0.300606995821     0.000002735686     
5.860000133514     0.305732995272     0.000002824367     
5.965000152588     0.311024010181     0.000002812082     
6.070000171661     0.316316008568     0.000002889246     
6.175000190735     0.321606993675     0.000003032442     
6.280000209808     0.326732993126     0.000003108071     
6.385000228882     0.332024008036     0.000003220938     
6.489999771118     0.337314993143     0.000003288121     
6.594999790192     0.342772006989     0.000003486598     
6.699999809265     0.347896993160     0.000003588716     
6.804999828339     0.353188991547     0.000003477000     
6.909999847412     0.358480006456     0.000003491205     
7.014999866486     0.363770991564     0.000003510016     
7.119999885559     0.368896991014     0.000003620964     
7.224999904633     0.374188005924     0.000003667800     
7.329999923706     0.379314005375     0.000003850537     
7.434999942780     0.384770989418     0.000003957646     
7.539999961853     0.390062004328     0.000004012160     
7.644999980927     0.395188003778     0.000004137312     
7.750000000000     0.400478988886     0.000004247876     
7.855000019073     0.405770003796     0.000004331566     
7.960000038147     0.411060988903     0.000004134625     
8.064999580383     0.416352987289     0.000004164569     
8.170000076294     0.421478003263     0.000004478985     
8.274999618530     0.426770001650     0.000004700112     
8.380000114441     0.432060986757     0.000004829871     
8.484999656677     0.437352001667     0.000004940051     
8.590000152588     0.442478001118     0.000005015296     
8.694999694824     0.447768986225     0.000005077104     
8.800000190735     0.453060001135     0.000004967308     
8.904999732971     0.458351999521     0.000004907419     
9.010000228882     0.463643014431     0.000004958094     
9.114999771118     0.468933999538     0.000004731592     
9.220000267029     0.474225014448     0.000004720075     
9.324999809265     0.479351013899     0.000004865574     
9.430000305176     0.484641999006     0.000004930453     
9.534999847412     0.489933997393     0.000004930069     
9.640000343323     0.495225012302     0.000005040249     
9.744999885559     0.500515997410     0.000005098986     
9.850000381470     0.505641996861     0.000005236423     
9.954999923706     0.510932981968     0.000005469836     
10.060000419617     0.516224026680     0.000005796920     
10.164999961853     0.521350026131     0.000005993478     
10.270000457764     0.526807010174     0.000006081775     
10.375000000000     0.531933009624     0.000006278333     
10.479999542236     0.537223994732     0.000006400414     
10.585000038147     0.542514979839     0.000006500229     
10.689999580383     0.547640979290     0.000006584687     
10.795000076294     0.552932024002     0.000006679127     
10.899999618530     0.558223009109     0.000006788923     
11.005000114441     0.563515007496     0.000006854186     
11.109999656677     0.568805992603     0.000006983561     
11.215000152588     0.573931992054     0.000007074546     
11.319999694824     0.579388022423     0.000007163227     
11.425000190735     0.584514021873     0.000007267265     
11.529999732971     0.589805006981     0.000007332912     
11.635000228882     0.595095992088     0.000007330609     
11.739999771118     0.600387990475     0.000007452306     
11.845000267029     0.605513989925     0.000007561334     
11.949999809265     0.610804975033     0.000007621606     
12.055000305176     0.616261005402     0.000007700306     
12.159999847412     0.621387004852     0.000007767105     
12.265000343323     0.626677989960     0.000007839279     
12.369999885559     0.631803989410     0.000007922969     
12.475000381470     0.637094974518     0.000007856171     
12.579999923706     0.642386972904     0.000008005892     
12.685000419617     0.647678017616     0.000008136803     
12.789999961853     0.652969002724     0.000008214735     
12.895000457764     0.658259987831     0.000008309943     
13.000000000000     0.663551986217     0.000008397472     
13.104999542236     0.668842971325     0.000008424345     
13.210000038147     0.673968970776     0.000008521857     
13.314999580383     0.679425001144     0.000008662365     
13.420000076294     0.684551000595     0.000008790204     
13.524999618530     0.689841985703     0.000008878118     
13.630000114441     0.695133984089     0.000008938006     
13.734999656677     0.700425028801     0.000009021313     
13.840000152588     0.705551028252     0.000009184855     
13.944999694824     0.710842013359     0.000009237834     
14.050000190735     0.716132998466     0.000009334961     
14.154999732971     0.721423983574     0.000009358763     
14.260000228882     0.726715028286     0.000009437463     
14.345000267029     0.734486997128     0.000009659405     
14.449999809265     0.739777982235     0.000009728020     
14.555000305176     0.745069026947     0.000009777575     
14.659999847412     0.750361025333     0.000009853813     
14.765000343323     0.755486011505     0.000009910992     
14.869999885559     0.760778009892     0.000009979607     
14.975000381470     0.766068994999     0.000010010102     
15.079999923706     0.771359980106     0.000010059657     
15.185000419617     0.776651024818     0.000010139707     
15.289999961853     0.781943023205     0.000010215946     
15.395000457764     0.787234008312     0.000010235005     
15.500000000000     0.792360007763     0.000010280748     
15.604999542236     0.797650992870     0.000010353175     
15.710000038147     0.802941977978     0.000010368422     
15.814999580383     0.808233022690     0.000010410354     
15.920000076294     0.813524007797     0.000010421789     
16.024999618530     0.818816006184     0.000010459908     
16.129999160767     0.824106991291     0.000010532335     
16.235000610352     0.829397976398     0.000010620009     
16.340000152588     0.834523975849     0.000010703871     
16.444999694824     0.839815020561     0.000010791546     
16.549999237061     0.845106005669     0.000010810605     
16.655000686646     0.850398004055     0.000010875408     
16.760000228882     0.855688989162     0.000010886844     
16.864999771118     0.860979974270     0.000010944022     
16.969999313354     0.866105973721     0.000010963082     
17.075000762939     0.871397018433     0.000010970706     
17.180000305176     0.876688003540     0.000010982142     
17.284999847412     0.881980001926     0.000011043132     
17.389999389648     0.887104988098     0.000011092687     
17.495000839233     0.892396986485     0.000011187985     
17.600000381470     0.897687971592     0.000011287095     
17.704999923706     0.902979016304     0.000011260412     
17.809999465942     0.908270001411     0.000011386205     
17.915000915527     0.913561999798     0.000011451008     
18.020000457764     0.918852984905     0.000011492939     
18.125000000000     0.923978984356     0.000011565365     
18.229999542236     0.929270029068     0.000011622544     
18.334999084473     0.934561014175     0.000011679723     
18.440000534058     0.939851999283     0.000011729278     
18.545000076294     0.945142984390     0.000011763585     
18.649999618530     0.950268983841     0.000011862695     
18.754999160767     0.955560982227     0.000011919874     
18.860000610352     0.960852026939     0.000012011360     
18.965000152588     0.966143012047     0.000012011360     
19.069999694824     0.971433997154     0.000012076163     
19.174999237061     0.976724982262     0.000012129529     
19.280000686646     0.982016980648     0.000012167649     
19.385000228882     0.987142026424     0.000012167649     
19.489999771118     0.992434024811     0.000012228639     
19.594999313354     0.997725009918     0.000012278194     
19.700000762939     1.003015995026     0.000012339185     
19.805000305176     1.008306980133     0.000012377304     
19.909999847412     1.013599038124     0.000012411612     
20.014999389648     1.018723964691     0.000012468790     
20.120000839233     1.024016022682     0.000012506910     
20.225000381470     1.029307007790     0.000012548841     
20.329999923706     1.034597992897     0.000012609831     
20.434999465942     1.039888978004     0.000012663198     
20.540000915527     1.045181035995     0.000012716565     
20.645000457764     1.050305962563     0.000012750872     
20.750000000000     1.055598020554     0.000012769932     
20.854999542236     1.060889005661     0.000012846170     
20.959999084473     1.066179990768     0.000012899537     
21.065000534058     1.071470975876     0.000012949092     
21.170000076294     1.076761960983     0.000012979588     
21.274999618530     1.082054018974     0.000013013895     
21.379999160767     1.087345004082     0.000013097757     
21.485000610352     1.092635989189     0.000013154936     
21.590000152588     1.097761988640     0.000013185431     
21.694999694824     1.103052973747     0.000013257858     
21.799999237061     1.108343958855     0.000013326472     
21.905000686646     1.113636016846     0.000013379839     
22.010000228882     1.118927001953     0.000013440830     
22.114999771118     1.124217987061     0.000013532316     
22.219999313354     1.129343986511     0.000013616178     
22.325000762939     1.134799957275     0.000013673357     
22.430000305176     1.139925956726     0.000013734348     
22.534999847412     1.145218014717     0.000013780091     
22.639999389648     1.150508999825     0.000013856329     
22.745000839233     1.155799984932     0.000013928756     
22.850000381470     1.161090970039     0.000013982123     
22.954999923706     1.166216969490     0.000014043113     
23.059999465942     1.171507954597     0.000014100292     
23.165000915527     1.176800012589     0.000014157471     
23.270000457764     1.182090997696     0.000014233709     
23.375000000000     1.187216997147     0.000014309948     
23.479999542236     1.192507982254     0.000014367126     
23.584999084473     1.197468042374     0.000014424305     
23.690000534058     1.195484042168     0.000014222274     
23.795000076294     1.190193057060     0.000013928756     
23.899999618530     1.184901952744     0.000013642862     
24.004999160767     1.179775953293     0.000013402711     
24.110000610352     1.174484968185     0.000013193055     
24.215000152588     1.169193029404     0.000012960528     
24.319999694824     1.163902044296     0.000012731813     
24.424999237061     1.158611059189     0.000012503098     
24.530000686646     1.153484940529     0.000012304878     
24.635000228882     1.148193955421     0.000012095222     
24.739999771118     1.142902970314     0.000011862695     
24.844999313354     1.137611031532     0.000011656851     
24.950000762939     1.132320046425     0.000011496751     
25.055000305176     1.127028942108     0.000011306155     
25.159999847412     1.121902942657     0.000011130806     
25.264999389648     1.116611957550     0.000010947834     
25.370000839233     1.111320972443     0.000010776298     
25.475000381470     1.106029033661     0.000010612385     
25.579999923706     1.100738048553     0.000010437037     
25.684999465942     1.095446944237     0.000010276936     
25.790000915527     1.090155959129     0.000010124460     
25.895000457764     1.085029959679     0.000009968171     
26.000000000000     1.079738974571     0.000009815694     
26.104999542236     1.074447989464     0.000009670841     
26.209999084473     1.069156050682     0.000009537424     
26.315000534058     1.063864946365     0.000009396383     
26.420000076294     1.058573961258     0.000009259154     
26.524999618530     1.053447961807     0.000009133360     
26.629999160767     1.048156976700     0.000009007567     
26.735000610352     1.042865991592     0.000008885586     
26.840000152588     1.037574052811     0.000008752168     
26.944999694824     1.032449007034     0.000008633999     
27.049999237061     1.026991963387     0.000008515829     
27.155000686646     1.021865963936     0.000008397660     
27.260000228882     1.016574978828     0.000008290926     
27.364999771118     1.011118054390     0.000008180380     
27.469999313354     1.005826950073     0.000008069835     
27.575000762939     1.000700950623     0.000007955477     
27.680000305176     0.995410025120     0.000007841119     
27.784999847412     0.990118980408     0.000007726762     
27.889999389648     0.984992980957     0.000007616216     
27.995000839233     0.979701995850     0.000007517106     
28.100000381470     0.974409997463     0.000007417996     
28.204999923706     0.969119012356     0.000007330322     
28.309999465942     0.963828027248     0.000007235024     
28.415000915527     0.958702027798     0.000007143538     
28.520000457764     0.953245997429     0.000007052052     
28.625000000000     0.948119997978     0.000006964378     
28.729999542236     0.942829012871     0.000006884328     
28.834999084473     0.937537014484     0.000006800465     
28.940000534058     0.932246029377     0.000006716603     
29.045000076294     0.926954984665     0.000006647988     
29.149999618530     0.921663999557     0.000006571750     
29.254999160767     0.916538000107     0.000006491700     
29.360000610352     0.911247014999     0.000006415461     
29.465000152588     0.905955016613     0.000006343035     
29.569999694824     0.900663971901     0.000006270608     
29.674999237061     0.895372986794     0.000006194370     
29.780000686646     0.890082001686     0.000006118132     
29.885000228882     0.884956002235     0.000006057141     
29.989999771118     0.879665017128     0.000005992338     
30.094999313354     0.874373018742     0.000005931348     
30.200000762939     0.869081974030     0.000005866545     
30.305000305176     0.863790988922     0.000005805554     
30.409999847412     0.858500003815     0.000005740752     
30.514999389648     0.853374004364     0.000005679761     
30.620000839233     0.848083019257     0.000005611146     
30.725000381470     0.842625975609     0.000005546344     
30.829999923706     0.837499976158     0.000005485353     
30.934999465942     0.832208991051     0.000005420550     
31.040000915527     0.826918005943     0.000005359560     
31.145000457764     0.821792006493     0.000005298569     
31.250000000000     0.816501021385     0.000005233766     
31.354999542236     0.811209976673     0.000005172775     
31.459999084473     0.805917978287     0.000005107973     
31.565000534058     0.800626993179     0.000005046982     
31.670000076294     0.795336008072     0.000004985991     
31.774999618530     0.790045022964     0.000004925001     
31.879999160767     0.784753024578     0.000004875446     
31.985000610352     0.779627978802     0.000004814455     
32.090000152588     0.774335980415     0.000004761088     
32.194999694824     0.769044995308     0.000004696285     
32.299999237061     0.763754010201     0.000004631483     
32.404998779297     0.758463025093     0.000004578116     
32.509998321533     0.753171980381     0.000004520937     
32.615001678467     0.748045980930     0.000004467570     
32.720001220703     0.742753982544     0.000004402768     
32.825000762939     0.737462997437     0.000004349401     
32.930000305176     0.732172012329     0.000004299846     
33.034999847412     0.726881027222     0.000004242667     
33.139999389648     0.721589982510     0.000004185488     
33.244998931885     0.716463983059     0.000004128309     
33.349998474121     0.711172997952     0.000004071131     
33.455001831055     0.705880999565     0.000004017764     
33.560001373291     0.700590014458     0.000003960585     
33.665000915527     0.695299029350     0.000003903406     
33.770000457764     0.690007984638     0.000003846227     
33.875000000000     0.684881985188     0.000003792860     
33.979999542236     0.679425001144     0.000003739494     
34.084999084473     0.674134016037     0.000003682315     
34.189998626709     0.669008016586     0.000003628948     
34.294998168945     0.663551986217     0.000003571769     
34.404998779297     0.657433986664     0.000003423638     
34.509998321533     0.652307987213     0.000003371427     
34.615001678467     0.646851003170     0.000003319217     
34.720001220703     0.641725003719     0.000003267390     
34.825000762939     0.636434018612     0.000003215179     
34.930000305176     0.631142973900     0.000003167575     
35.034999847412     0.625851988792     0.000003122275     
35.139999389648     0.620725989342     0.000003079278     
35.244998931885     0.615435004234     0.000003037049     
35.349998474121     0.610143005848     0.000003001346     
