
Cycle 1
Physical Cycle 1
Step 1

Time (s),          Potential (V),         Current (A)
0.104999996722     0.002485000063     -0.000000141388     
0.209999993443     0.007619999815     -0.000000129925     
0.314999997616     0.012920999900     -0.000000122282     
0.419999986887     0.018222000450     -0.000000110818     
0.449999988079     0.028326999396     -0.000000099065     
0.555000007153     0.033461999148     -0.000000090970     
0.660000026226     0.038763001561     -0.000000084417     
0.764999985695     0.044064000249     -0.000000078250     
0.795000016689     0.054003998637     -0.000000066549     
0.899999976158     0.059305001050     -0.000000060583     
1.004999995232     0.064606003463     -0.000000055541     
1.110000014305     0.069907002151     -0.000000051172     
1.215000033379     0.075208000839     -0.000000045962     
1.320000052452     0.080508999527     -0.000000040375     
1.424999952316     0.085643999279     -0.000000036761     
1.529999971390     0.090944997966     -0.000000033148     
1.634999990463     0.096245996654     -0.000000028611     
1.740000009537     0.101547002792     -0.000000024704     
1.845000028610     0.106848001480     -0.000000021007     
1.950000047684     0.111983001232     -0.000000016301     
2.039999961853     0.119106002152     -0.000000011141     
2.144999980927     0.124407000840     -0.000000007247     
2.250000000000     0.129543006420     -0.000000004475     
2.355000019073     0.134843006730     -0.000000000557     
2.460000038147     0.139979004860     0.000000004149     
2.565000057220     0.145280003548     0.000000007903     
2.670000076294     0.150415003300     0.000000011888     
2.775000095367     0.155716001987     0.000000016973     
2.880000114441     0.161017000675     0.000000021255     
2.984999895096     0.166317999363     0.000000025123     
3.089999914169     0.171452999115     0.000000030591     
3.194999933243     0.176588997245     0.000000036506     
3.299999952316     0.181889995933     0.000000041288     
3.404999971390     0.187190994620     0.000000046738     
3.509999990463     0.192325994372     0.000000053351     
3.615000009537     0.197626993060     0.000000059414     
3.720000028610     0.202761992812     0.000000065660     
3.825000047684     0.208063006401     0.000000073377     
3.930000066757     0.213198006153     0.000000080775     
4.005000114441     0.221480995417     0.000000093059     
4.110000133514     0.226781994104     0.000000100831     
4.215000152588     0.232082992792     0.000000108814     
4.320000171661     0.237219005823     0.000000117805     
4.425000190735     0.242520004511     0.000000126291     
4.530000209808     0.247820004821     0.000000134358     
4.635000228882     0.253120988607     0.000000143685     
4.739999771118     0.258421987295     0.000000153768     
4.844999790192     0.263722985983     0.000000162465     
4.949999809265     0.268858999014     0.000000171077     
5.054999828339     0.274159997702     0.000000180908     
5.159999847412     0.279294997454     0.000000189857     
5.264999866486     0.284595996141     0.000000198470     
5.369999885559     0.289896994829     0.000000208469     
5.474999904633     0.295197993517     0.000000217670     
5.579999923706     0.300498992205     0.000000224980     
5.684999942780     0.305633991957     0.000000233173     
5.789999961853     0.310934990644     0.000000241953     
5.894999980927     0.316235989332     0.000000249768     
6.000000000000     0.321536988020     0.000000256910     
6.105000019073     0.326671987772     0.000000264683     
6.210000038147     0.331972986460     0.000000271447     
6.315000057220     0.337273985147     0.000000276992     
6.420000076294     0.342409998178     0.000000283336     
6.525000095367     0.347710996866     0.000000290184     
6.630000114441     0.353011995554     0.000000295478     
6.735000133514     0.358312994242     0.000000300100     
6.840000152588     0.363613992929     0.000000305645     
6.945000171661     0.368914991617     0.000000310141     
7.050000190735     0.374215990305     0.000000314258     
7.155000209808     0.379516988993     0.000000319342     
7.260000228882     0.384651988745     0.000000323921     
7.364999771118     0.389952987432     0.000000326862     
7.469999790192     0.395253986120     0.000000330349     
7.574999809265     0.400388985872     0.000000334424     
7.679999828339     0.405690014362     0.000000337953     
7.784999847412     0.410991013050     0.000000341062     
7.889999866486     0.416126012802     0.000000345012     
7.994999885559     0.421593010426     0.000000348121     
8.100000381470     0.426728010178     0.000000350179     
8.204999923706     0.432029008865     0.000000353330     
8.310000419617     0.437330007553     0.000000357447     
8.414999961853     0.442465990782     0.000000360178     
8.520000457764     0.447766989470     0.000000362531     
8.625000000000     0.453067988157     0.000000366060     
8.729999542236     0.458368003368     0.000000368707     
8.835000038147     0.463669002056     0.000000371018     
8.939999580383     0.468804985285     0.000000374883     
9.045000076294     0.474106013775     0.000000378664     
9.149999618530     0.479571998119     0.000000380891     
9.255000114441     0.484708011150     0.000000383538     
9.359999656677     0.490009009838     0.000000387235     
9.465000152588     0.495144009590     0.000000390470     
9.569999694824     0.500445008278     0.000000393453     
9.675000190735     0.505746006966     0.000000397612     
9.779999732971     0.511047005653     0.000000401099     
9.885000228882     0.516182005405     0.000000403494     
9.989999771118     0.521483004093     0.000000407107     
10.095000267029     0.526784002781     0.000000411728     
10.199999809265     0.532085001469     0.000000415215     
10.305000305176     0.537386000156     0.000000418619     
10.409999847412     0.542520999908     0.000000423156     
10.515000343323     0.547821998596     0.000000426895     
10.619999885559     0.552958011627     0.000000430214     
10.725000381470     0.558259010315     0.000000435004     
10.829999923706     0.563560009003     0.000000440087     
10.935000419617     0.568861007690     0.000000443784     
11.039999961853     0.574162006378     0.000000447608     
11.145000457764     0.579463005066     0.000000452439     
11.250000000000     0.584764003754     0.000000456724     
11.354999542236     0.590065002441     0.000000460758     
11.460000038147     0.595200002193     0.000000466093     
11.564999580383     0.600501000881     0.000000470967     
11.670000076294     0.605636000633     0.000000474244     
11.774999618530     0.610936999321     0.000000478655     
11.880000114441     0.616237998009     0.000000484033     
11.984999656677     0.621538996696     0.000000488528     
12.090000152588     0.626673996449     0.000000492982     
12.194999694824     0.632140994072     0.000000498149     
12.300000190735     0.637275993824     0.000000502519     
12.404999732971     0.642576992512     0.000000506216     
12.510000228882     0.647877991199     0.000000511173     
12.614999771118     0.653014004230     0.000000516845     
12.720000267029     0.658315002918     0.000000520962     
12.824999809265     0.663616001606     0.000000524912     
12.930000305176     0.668917000294     0.000000529995     
13.034999847412     0.674216985703     0.000000534155     
13.140000343323     0.679352998734     0.000000537936     
13.244999885559     0.684653997421     0.000000542893     
13.350000381470     0.689954996109     0.000000547683     
13.454999923706     0.695255994797     0.000000550582     
13.560000419617     0.700390994549     0.000000554279     
13.664999961853     0.705691993237     0.000000558816     
13.770000457764     0.710992991924     0.000000562597     
13.875000000000     0.716293990612     0.000000566042     
13.979999542236     0.721594989300     0.000000570454     
14.085000038147     0.726729989052     0.000000574151     
14.189999580383     0.732030987740     0.000000576672     
14.295000076294     0.737331986427     0.000000580369     
14.399999618530     0.742632985115     0.000000584990     
14.505000114441     0.747767984867     0.000000588309     
14.609999656677     0.753068983555     0.000000591460     
14.715000152588     0.758369982243     0.000000595788     
14.819999694824     0.763670980930     0.000000599023     
14.925000190735     0.768806993961     0.000000602090     
15.029999732971     0.774272978306     0.000000606417     
15.135000228882     0.779408991337     0.000000610828     
15.239999771118     0.784709990025     0.000000613559     
15.345000267029     0.790010988712     0.000000616878     
15.449999809265     0.795311987400     0.000000621080     
15.555000305176     0.800446987152     0.000000624567     
15.659999847412     0.805747985840     0.000000628012     
15.765000343323     0.811048984528     0.000000632717     
15.869999885559     0.816349983215     0.000000637171     
15.975000381470     0.821484982967     0.000000640658     
16.079999923706     0.826785981655     0.000000645195     
16.184999465942     0.832086980343     0.000000650699     
16.290000915527     0.837387979031     0.000000654942     
16.395000457764     0.842522978783     0.000000659059     
16.500000000000     0.847823977470     0.000000663807     
16.604999542236     0.853124976158     0.000000667672     
16.709999084473     0.858425974846     0.000000670991     
16.815000534058     0.863561987877     0.000000675697     
16.920000076294     0.868862986565     0.000000680696     
17.024999618530     0.874163985252     0.000000684141     
17.129999160767     0.879464983940     0.000000687796     
17.235000610352     0.884599983692     0.000000692082     
17.340000152588     0.890066027641     0.000000695527     
17.444999694824     0.895201981068     0.000000699686     
17.549999237061     0.900502979755     0.000000705442     
17.655000686646     0.905637979507     0.000000710988     
17.760000228882     0.911104977131     0.000000714769     
17.864999771118     0.916239976883     0.000000719768     
17.969999313354     0.921540975571     0.000000725734     
18.075000762939     0.926841974258     0.000000731112     
18.180000305176     0.931976974010     0.000000736490     
18.284999847412     0.937277972698     0.000000742708     
18.389999389648     0.942578971386     0.000000748421     
18.495000839233     0.947880029678     0.000000753295     
18.600000381470     0.953015983105     0.000000759471     
18.704999923706     0.958482027054     0.000000766865     
18.809999465942     0.963617026806     0.000000772663     
18.915000915527     0.968918025494     0.000000778965     
19.020000457764     0.974219024181     0.000000786275     
19.125000000000     0.979520022869     0.000000792787     
19.229999542236     0.984821021557     0.000000799803     
19.334999084473     0.989956974983     0.000000808584     
19.440000534058     0.995257973671     0.000000817365     
19.545000076294     1.000393033028     0.000000824465     
19.649999618530     1.005694031715     0.000000832994     
19.754999160767     1.010995030403     0.000000842363     
19.860000610352     1.016296029091     0.000000851690     
19.965000152588     1.021430969238     0.000000861016     
20.069999694824     1.026731967926     0.000000872192     
20.174999237061     1.032032966614     0.000000882863     
20.280000686646     1.037333965302     0.000000893283     
20.385000228882     1.042634963989     0.000000905256     
20.489999771118     1.047935962677     0.000000917482     
20.594999313354     1.053071022034     0.000000929288     
20.700000762939     1.058372020721     0.000000941808     
20.805000305176     1.063673019409     0.000000956134     
20.909999847412     1.068809032440     0.000000969914     
21.014999389648     1.074275016785     0.000000984745     
21.120000839233     1.079411029816     0.000001001298     
21.225000381470     1.084545969963     0.000001018566     
21.239999771118     1.095975995064     0.000001060422     
21.344999313354     1.101111054420     0.000001079310     
21.450000762939     1.106577992439     0.000001098969     
21.555000305176     1.111713051796     0.000001120555     
21.659999847412     1.117014050484     0.000001142913     
21.764999389648     1.122315049171     0.000001166041     
21.870000839233     1.127450942993     0.000001190711     
21.975000381470     1.132917046547     0.000001217308     
22.079999923706     1.138218045235     0.000001243905     
22.184999465942     1.143354058266     0.000001271659     
22.290000915527     1.148655056953     0.000001302111     
22.395000457764     1.153956055641     0.000001332563     
22.500000000000     1.159090995789     0.000001364171     
22.604999542236     1.164391994476     0.000001399249     
22.709999084473     1.169692993164     0.000001435868     
22.815000534058     1.174993991852     0.000001473259     
22.920000076294     1.180294990540     0.000001512191     
23.024999618530     1.185430049896     0.000001553436     
23.129999160767     1.190731048584     0.000001595838     
23.235000610352     1.196032047272     0.000001640166     
23.340000152588     1.198351025581     0.000001625133     
23.444999694824     1.193382024765     0.000001491376     
23.549999237061     1.188081026077     0.000001368797     
23.655000686646     1.182945013046     0.000001260480     
23.760000228882     1.177644014359     0.000001163342     
23.864999771118     1.172343015671     0.000001076612     
23.969999313354     1.167042016983     0.000000997206     
24.075000762939     1.161906957626     0.000000926665     
24.180000305176     1.156605958939     0.000000862292     
24.284999847412     1.151304960251     0.000000803315     
24.389999389648     1.146003961563     0.000000750506     
24.495000839233     1.140869021416     0.000000703094     
24.600000381470     1.135568022728     0.000000658379     
24.704999923706     1.130267024040     0.000000617905     
24.809999465942     1.124966025352     0.000000581671     
24.915000915527     1.119665026665     0.000000547750     
25.020000457764     1.114529967308     0.000000516527     
25.125000000000     1.109228968620     0.000000489159     
25.229999542236     1.103927969933     0.000000462947     
25.334999084473     1.098791956902     0.000000438277     
25.440000534058     1.093490958214     0.000000415535     
25.545000076294     1.088189959526     0.000000395876     
25.649999618530     1.082888960838     0.000000376602     
25.754999160767     1.077587962151     0.000000358871     
25.860000610352     1.072286963463     0.000000343452     
25.965000152588     1.066985964775     0.000000327648     
26.069999694824     1.061851024628     0.000000313385     
26.145000457764     1.053900003433     0.000000294680     
26.250000000000     1.048599004745     0.000000282328     
26.354999542236     1.043462991714     0.000000272287     
26.459999084473     1.038161993027     0.000000261616     
26.565000534058     1.032860994339     0.000000250818     
26.670000076294     1.027559995651     0.000000242290     
26.774999618530     1.022258996964     0.000000234895     
26.879999160767     1.017124056816     0.000000226451     
26.985000610352     1.011823058128     0.000000218636     
27.090000152588     1.006522059441     0.000000211830     
27.194999694824     1.001387000084     0.000000205486     
27.299999237061     0.996086001396     0.000000198638     
27.405000686646     0.990785002708     0.000000193848     
27.510000228882     0.985484004021     0.000000188891     
27.614999771118     0.980183005333     0.000000182463     
27.719999313354     0.975048005581     0.000000177169     
27.825000762939     0.969747006893     0.000000172884     
27.930000305176     0.964446008205     0.000000168473     
28.034999847412     0.959145009518     0.000000163767     
28.139999389648     0.953844010830     0.000000160742     
28.245000839233     0.948707997799     0.000000156121     
28.350000381470     0.943408012390     0.000000151583     
28.454999923706     0.938107013702     0.000000148600     
28.559999465942     0.932971000671     0.000000146164     
28.665000915527     0.927670001984     0.000000142550     
28.770000457764     0.922369003296     0.000000138643     
28.875000000000     0.917068004608     0.000000136080     
28.979999542236     0.911767005920     0.000000133055     
29.084999084473     0.906466007233     0.000000129778     
29.190000534058     0.901165008545     0.000000128098     
29.295000076294     0.896030008793     0.000000125325     
29.399999618530     0.890729010105     0.000000121628     
29.504999160767     0.885594010353     0.000000119149     
29.610000610352     0.880293011665     0.000000117553     
29.715000152588     0.874992012978     0.000000115158     
29.819999694824     0.869691014290     0.000000112553     
29.924999237061     0.864390015602     0.000000111251     
30.030000686646     0.859089016914     0.000000108016     
30.135000228882     0.853954017162     0.000000105495     
30.239999771118     0.848653018475     0.000000104066     
30.344999313354     0.843352019787     0.000000103100     
30.450000762939     0.838216006756     0.000000100075     
30.555000305176     0.832750022411     0.000000097470     
30.659999847412     0.827614009380     0.000000095874     
30.764999389648     0.822313010693     0.000000094025     
30.870000839233     0.817012012005     0.000000091967     
30.975000381470     0.811877012253     0.000000090916     
31.079999923706     0.806410014629     0.000000088858     
31.184999465942     0.801275014877     0.000000085959     
31.290000915527     0.795974016190     0.000000083942     
31.395000457764     0.790673017502     0.000000083354     
31.500000000000     0.785372018814     0.000000081589     
31.604999542236     0.780237019062     0.000000079573     
31.709999084473     0.774936020374     0.000000078186     
31.815000534058     0.769635021687     0.000000075750     
31.920000076294     0.764334022999     0.000000073775     
32.025001525879     0.759033024311     0.000000072851     
32.130001068115     0.753898024559     0.000000071800     
32.235000610352     0.748597025871     0.000000068691     
32.340000152588     0.743296027184     0.000000066591     
32.444999694824     0.737995028496     0.000000065666     
32.549999237061     0.732859015465     0.000000063986     
32.654998779297     0.727558970451     0.000000062095     
32.759998321533     0.722257971764     0.000000061171     
32.865001678467     0.717122018337     0.000000059070     
32.970001220703     0.711655974388     0.000000056550     
33.075000762939     0.706520020962     0.000000054869     
33.180000305176     0.701219022274     0.000000054407     
33.284999847412     0.695918023586     0.000000052264     
33.389999389648     0.690617024899     0.000000049996     
33.494998931885     0.685316026211     0.000000048777     
33.599998474121     0.680181026459     0.000000046887     
33.705001831055     0.674880027771     0.000000044618     
33.810001373291     0.669579029083     0.000000043694     
33.915000915527     0.664444029331     0.000000042601     
34.020000457764     0.659142971039     0.000000039786     
34.125000000000     0.653841972351     0.000000037812     
34.229999542236     0.648540973663     0.000000036509     
34.334999084473     0.643239974976     0.000000034871     
34.439998626709     0.638104975224     0.000000032980     
34.544998168945     0.632803976536     0.000000032266     
34.650001525879     0.627502977848     0.000000030123     
34.755001068115     0.622201979160     0.000000027393     
34.860000610352     0.616900980473     0.000000025964     
34.965000152588     0.611599981785     0.000000025460     
35.029998779297     0.603317022324     0.000000021884     
35.134998321533     0.598016023636     0.000000019943     
