
Cycle 1
Physical Cycle 1
Step 1

Time (s),          Potential (V),         Current (A)
0.104999996722     0.002318999963     -0.000001975617     
0.209999993443     0.007619999815     -0.000001876263     
0.314999997616     0.012920999900     -0.000001788373     
0.419999986887     0.018055999652     -0.000001708126     
0.449999988079     0.028161000460     -0.000001562687     
0.555000007153     0.033461999148     -0.000001492532     
0.660000026226     0.038763001561     -0.000001425075     
0.764999985695     0.044064000249     -0.000001360317     
0.870000004768     0.049364998937     -0.000001297871     
0.975000023842     0.054501000792     -0.000001236196     
1.080000042915     0.059801999480     -0.000001177990     
1.184999942780     0.065103001893     -0.000001121326     
1.289999961853     0.070238001645     -0.000001064663     
1.394999980927     0.075539000332     -0.000001010312     
1.500000000000     0.080839999020     -0.000000957503     
1.605000019073     0.086140997708     -0.000000907392     
1.710000038147     0.091441996396     -0.000000856895     
1.815000057220     0.096577003598     -0.000000807941     
1.919999957085     0.101878002286     -0.000000760528     
2.025000095367     0.107179000974     -0.000000713501     
2.130000114441     0.112479999661     -0.000000668016     
2.234999895096     0.117614999413     -0.000000625229     
2.339999914169     0.123081997037     -0.000000582057     
2.444999933243     0.128216996789     -0.000000540041     
2.549999952316     0.133517995477     -0.000000499567     
2.654999971390     0.138818994164     -0.000000460249     
2.759999990463     0.143955007195     -0.000000421317     
2.865000009537     0.149256005883     -0.000000387010     
2.970000028610     0.154556006193     -0.000000350390     
3.075000047684     0.159857004881     -0.000000313771     
3.180000066757     0.165158003569     -0.000000277922     
3.285000085831     0.170294001698     -0.000000244772     
3.349999904633     0.178742006421     -0.000000192924     
3.454999923706     0.184043005109     -0.000000162087     
3.559999942780     0.189178004861     -0.000000131837     
3.664999961853     0.194479003549     -0.000000102848     
3.769999980927     0.199615001678     -0.000000073607     
3.875000000000     0.204916000366     -0.000000044954     
3.980000019073     0.210216999054     -0.000000017898     
4.085000038147     0.215517997742     0.000000009411     
4.190000057220     0.220652997494     0.000000037098     
4.295000076294     0.225953996181     0.000000064700     
4.400000095367     0.231088995934     0.000000092219     
4.505000114441     0.236389994621     0.000000120284     
4.610000133514     0.241690993309     0.000000148012     
4.715000152588     0.246992006898     0.000000175447     
4.820000171661     0.252292990685     0.000000204646     
4.925000190735     0.257427990437     0.000000233929     
5.030000209808     0.262564003468     0.000000263800     
5.135000228882     0.267865002155     0.000000294470     
5.239999771118     0.273166000843     0.000000326442     
5.344999790192     0.278466999531     0.000000358204     
5.449999809265     0.283767998219     0.000000391352     
5.554999828339     0.288902997971     0.000000425971     
5.659999847412     0.294037997723     0.000000461136     
5.764999866486     0.299338996410     0.000000496427     
5.869999885559     0.304639995098     0.000000533566     
5.974999904633     0.309940993786     0.000000571882     
6.079999923706     0.315241992474     0.000000611417     
6.184999942780     0.320378005505     0.000000651833     
6.289999961853     0.325679004192     0.000000694351     
6.394999980927     0.330814003944     0.000000737288     
6.500000000000     0.336115002632     0.000000780687     
6.605000019073     0.341250002384     0.000000826146     
6.710000038147     0.346551001072     0.000000873914     
6.815000057220     0.351851999760     0.000000921725     
6.920000076294     0.356986999512     0.000000970503     
7.025000095367     0.362287998199     0.000001020876     
7.119999885559     0.369576990604     0.000001095886     
7.224999904633     0.374877989292     0.000001148695     
7.329999923706     0.380178987980     0.000001203046     
7.434999942780     0.385313987732     0.000001258168     
7.539999961853     0.390614986420     0.000001314831     
7.644999980927     0.395915985107     0.000001372266     
7.750000000000     0.401217013597     0.000001430472     
7.855000019073     0.406352996826     0.000001490605     
7.960000038147     0.411653995514     0.000001550738     
8.064999580383     0.416954994202     0.000001611642     
8.170000076294     0.422255992889     0.000001673702     
8.274999618530     0.427390992641     0.000001736533     
8.380000114441     0.432691991329     0.000001799365     
8.484999656677     0.437992990017     0.000001863738     
8.590000152588     0.443293988705     0.000001928882     
8.694999694824     0.448594987392     0.000001994026     
8.800000190735     0.453729987144     0.000002059170     
8.904999732971     0.459030985832     0.000002125856     
9.010000228882     0.464332014322     0.000002193313     
9.114999771118     0.469633013010     0.000002260384     
9.220000267029     0.474934011698     0.000002328612     
9.324999809265     0.480069011450     0.000002397611     
9.430000305176     0.485370010138     0.000002466610     
9.534999847412     0.490671008825     0.000002535223     
9.640000343323     0.495972007513     0.000002605764     
9.744999885559     0.501107990742     0.000002677075     
9.850000381470     0.506408989429     0.000002748001     
9.954999923706     0.511709988117     0.000002818927     
10.060000419617     0.516844987869     0.000002891395     
10.164999961853     0.522145986557     0.000002964249     
10.270000457764     0.527446985245     0.000003036717     
10.375000000000     0.532747983932     0.000003110727     
10.479999542236     0.538048982620     0.000003184737     
10.585000038147     0.543349981308     0.000003258746     
10.689999580383     0.548484981060     0.000003332756     
10.795000076294     0.553785979748     0.000003407923     
10.899999618530     0.559086978436     0.000003483089     
11.005000114441     0.564221978188     0.000003559026     
11.109999656677     0.569522976875     0.000003635734     
11.215000152588     0.574823975563     0.000003712057     
11.319999694824     0.580124974251     0.000003787994     
11.425000190735     0.585260987282     0.000003865088     
11.529999732971     0.590726971626     0.000003942567     
11.635000228882     0.595861971378     0.000004020046     
11.739999771118     0.601163029671     0.000004097525     
11.845000267029     0.606464028358     0.000004176160     
11.949999809265     0.611599981785     0.000004254410     
12.055000305176     0.616900980473     0.000004333046     
12.159999847412     0.622201979160     0.000004412838     
12.265000343323     0.627336978912     0.000004493015     
12.369999885559     0.632637977600     0.000004571650     
12.475000381470     0.637938976288     0.000004650286     
12.579999923706     0.643239974976     0.000004730463     
12.685000419617     0.648374974728     0.000004809870     
12.789999961853     0.653675973415     0.000004889662     
12.895000457764     0.658976972103     0.000004969453     
13.000000000000     0.664277970791     0.000005050016     
13.104999542236     0.669412970543     0.000005129037     
13.210000038147     0.674880027771     0.000005209215     
13.314999580383     0.680015027523     0.000005289392     
13.420000076294     0.685316026211     0.000005368798     
13.524999618530     0.690617024899     0.000005448590     
13.630000114441     0.695752978325     0.000005529153     
13.734999656677     0.701053977013     0.000005607788     
13.840000152588     0.706354975700     0.000005687195     
13.944999694824     0.711655974388     0.000005766987     
14.050000190735     0.716956973076     0.000005846779     
14.154999732971     0.722091972828     0.000005925414     
14.260000228882     0.727392971516     0.000006005206     
14.364999771118     0.732693970203     0.000006085383     
14.470000267029     0.737829029560     0.000006164019     
14.574999809265     0.743296027184     0.000006242269     
14.680000305176     0.748431026936     0.000006321675     
14.784999847412     0.753732025623     0.000006400696     
14.890000343323     0.758867025375     0.000006478946     
14.994999885559     0.764168024063     0.000006557196     
15.100000381470     0.769469022751     0.000006635446     
15.204999923706     0.774604976177     0.000006712925     
15.310000419617     0.780071020126     0.000006791561     
15.414999961853     0.785372018814     0.000006870196     
15.520000457764     0.790507972240     0.000006948832     
15.625000000000     0.795808970928     0.000007025925     
15.729999542236     0.801110029221     0.000007104561     
15.835000038147     0.806245028973     0.000007182425     
15.939999580383     0.811546027660     0.000007260675     
16.045000076294     0.816847026348     0.000007338154     
16.149999618530     0.821982026100     0.000007416790     
16.254999160767     0.827283024788     0.000007494269     
16.360000610352     0.832584023476     0.000007571748     
16.465000152588     0.837885022163     0.000007649998     
16.569999694824     0.843186020851     0.000007728248     
16.674999237061     0.848321020603     0.000007804956     
16.780000686646     0.853622019291     0.000007882050     
16.885000228882     0.858923017979     0.000007961456     
16.989999771118     0.864224016666     0.000008039706     
17.094999313354     0.869360029697     0.000008117956     
17.200000762939     0.874661028385     0.000008196592     
17.305000305176     0.879961013794     0.000008274842     
17.409999847412     0.885262012482     0.000008352706     
17.514999389648     0.890398025513     0.000008431342     
17.620000839233     0.895699024200     0.000008509206     
17.725000381470     0.901000022888     0.000008587456     
17.829999923706     0.906301021576     0.000008665321     
17.934999465942     0.911602020264     0.000008742414     
18.040000915527     0.916903018951     0.000008817580     
18.145000457764     0.922038018703     0.000008894674     
18.250000000000     0.927173018456     0.000008972924     
18.354999542236     0.932640016079     0.000009046548     
18.459999084473     0.937775015831     0.000009115933     
18.565000534058     0.943076014519     0.000009193412     
18.670000076294     0.948377013206     0.000009272047     
18.774999618530     0.953678011894     0.000009346443     
18.879999160767     0.958813011646     0.000009417369     
18.985000610352     0.964114010334     0.000009489451     
19.090000152588     0.969415009022     0.000009561534     
19.149999618530     0.978525996208     0.000009694663     
19.254999160767     0.983662009239     0.000009763447     
19.360000610352     0.988963007927     0.000009832231     
19.465000152588     0.994264006615     0.000009897193     
19.569999694824     0.999565005302     0.000009954513     
19.674999237061     1.004866003990     0.000010004190     
19.780000686646     1.010167002678     0.000010053867     
19.885000228882     1.015301942825     0.000010099722     
19.989999771118     1.020602941513     0.000010122650     
20.094999313354     1.025904059410     0.000010157042     
20.200000762939     1.031205058098     0.000010210540     
20.305000305176     1.036506056786     0.000010271681     
20.409999847412     1.041640996933     0.000010336644     
20.514999389648     1.046941995621     0.000010397785     
20.620000839233     1.052242994308     0.000010466568     
20.725000381470     1.057543992996     0.000010535352     
20.829999923706     1.062679052353     0.000010604135     
20.934999465942     1.067980051041     0.000010676740     
21.040000915527     1.073281049728     0.000010745524     
21.145000457764     1.078582048416     0.000010821950     
21.250000000000     1.083883047104     0.000010898376     
21.354999542236     1.089018940926     0.000010974802     
21.459999084473     1.094320058823     0.000011051229     
21.565000534058     1.099621057510     0.000011131476     
21.670000076294     1.104922056198     0.000011215545     
21.774999618530     1.110056996346     0.000011280507     
21.879999160767     1.115357995033     0.000011341648     
21.985000610352     1.120658993721     0.000011418074     
22.090000152588     1.125959992409     0.000011502143     
22.194999694824     1.131095051765     0.000011586212     
22.299999237061     1.136396050453     0.000011674102     
22.405000686646     1.141697049141     0.000011765813     
22.510000228882     1.146998047829     0.000011857525     
22.614999771118     1.152299046516     0.000011953058     
22.719999313354     1.157433986664     0.000012048590     
22.825000762939     1.162901043892     0.000012147944     
22.930000305176     1.168202042580     0.000012247299     
23.034999847412     1.173336982727     0.000012346653     
23.139999389648     1.178637981415     0.000012446007     
23.245000839233     1.183773040771     0.000012545361     
23.350000381470     1.189074039459     0.000012652357     
23.454999923706     1.194375038147     0.000012759354     
23.559999465942     1.198516964912     0.000012820495     
23.665000915527     1.194872021675     0.000012633251     
23.770000457764     1.189571022987     0.000012430721     
23.875000000000     1.184270024300     0.000012243477     
23.979999542236     1.178969025612     0.000012063876     
24.084999084473     1.173833966255     0.000011899559     
24.190000534058     1.168532967567     0.000011742886     
24.295000076294     1.163398027420     0.000011593855     
24.399999618530     1.158097028732     0.000011452466     
24.504999160767     1.152629971504     0.000011314899     
24.610000610352     1.147328972816     0.000011181153     
24.715000152588     1.142194032669     0.000011051229     
24.819999694824     1.136893033981     0.000010925125     
24.924999237061     1.131592035294     0.000010806665     
25.030000686646     1.126291036606     0.000010688204     
25.135000228882     1.121155977249     0.000010569743     
25.239999771118     1.115854978561     0.000010458925     
25.344999313354     1.110553979874     0.000010351929     
25.450000762939     1.105252981186     0.000010241111     
25.555000305176     1.100118041039     0.000010134114     
25.659999847412     1.094817042351     0.000010030939     
25.764999389648     1.089516043663     0.000009927763     
25.870000839233     1.084215044975     0.000009828409     
25.975000381470     1.078914046288     0.000009729055     
26.079999923706     1.073613047600     0.000009629701     
26.184999465942     1.068312048912     0.000009534168     
26.290000915527     1.063176035881     0.000009438636     
26.395000457764     1.057875037193     0.000009343103     
26.500000000000     1.052574038506     0.000009251392     
26.604999542236     1.047438979149     0.000009155859     
26.709999084473     1.042137980461     0.000009064147     
26.815000534058     1.036836981773     0.000008976257     
26.920000076294     1.031535983086     0.000008884546     
27.024999618530     1.026234984398     0.000008792834     
27.129999160767     1.021100044250     0.000008704944     
27.235000610352     1.015799045563     0.000008617054     
27.340000152588     1.010663986206     0.000008529164     
27.444999694824     1.005362987518     0.000008441274     
27.549999237061     1.000061988831     0.000008357205     
27.655000686646     0.994760990143     0.000008265494     
27.760000228882     0.989459991455     0.000008181425     
27.864999771118     0.984158992767     0.000008097356     
27.969999313354     0.978857994080     0.000008013287     
28.075000762939     0.973721981049     0.000007925397     
28.180000305176     0.968420982361     0.000007841328     
28.284999847412     0.963119983673     0.000007757259     
28.389999389648     0.957819998264     0.000007673190     
28.495000839233     0.952518999577     0.000007589122     
28.600000381470     0.947218000889     0.000007508874     
28.704999923706     0.942081987858     0.000007424805     
28.809999465942     0.936780989170     0.000007344558     
28.915000915527     0.931479990482     0.000007260489     
29.020000457764     0.926178991795     0.000007180241     
29.125000000000     0.921043992043     0.000007096173     
29.229999542236     0.915742993355     0.000007019746     
29.334999084473     0.910441994667     0.000006939499     
29.440000534058     0.905140995979     0.000006859251     
29.545000076294     0.900005996227     0.000006779004     
29.649999618530     0.894704997540     0.000006698756     
29.754999160767     0.889403998852     0.000006622330     
29.860000610352     0.884103000164     0.000006542083     
29.965000152588     0.878802001476     0.000006461835     
30.069999694824     0.873667001724     0.000006385409     
30.174999237061     0.868366003036     0.000006305162     
30.280000686646     0.863065004349     0.000006228735     
30.385000228882     0.857764005661     0.000006152309     
30.489999771118     0.852463006973     0.000006072062     
30.594999313354     0.847162008286     0.000005995635     
30.700000762939     0.842025995255     0.000005919209     
30.805000305176     0.836724996567     0.000005842783     
30.909999847412     0.831589996815     0.000005762535     
31.014999389648     0.826288998127     0.000005689931     
31.120000839233     0.820987999439     0.000005609683     
31.225000381470     0.815687000751     0.000005533257     
31.329999923706     0.810386002064     0.000005456831     
31.434999465942     0.805085003376     0.000005384226     
31.540000915527     0.799950003624     0.000005303978     
31.645000457764     0.794649004936     0.000005231373     
31.750000000000     0.789348006248     0.000005154947     
31.854999542236     0.784213006496     0.000005078521     
31.959999084473     0.778912007809     0.000005005916     
32.064998626709     0.773445010185     0.000004929490     
32.169998168945     0.768310010433     0.000004853064     
32.275001525879     0.763009011745     0.000004776638     
32.380001068115     0.757872998714     0.000004704033     
32.485000610352     0.752572000027     0.000004627606     
32.590000152588     0.747272014618     0.000004555002     
32.694999694824     0.741971015930     0.000004478575     
32.799999237061     0.736670017242     0.000004405970     
32.904998779297     0.731534004211     0.000004333366     
33.009998321533     0.726233005524     0.000004256939     
33.115001678467     0.720932006836     0.000004184334     
33.220001220703     0.715631008148     0.000004111730     
33.325000762939     0.710330009460     0.000004035303     
33.430000305176     0.705195009708     0.000003962698     
33.534999847412     0.699894011021     0.000003890094     
33.639999389648     0.694593012333     0.000003817489     
33.744998931885     0.689292013645     0.000003744884     
33.849998474121     0.683991014957     0.000003672279     
33.955001831055     0.678856015205     0.000003599674     
34.060001373291     0.673555016518     0.000003527069     
34.150001525879     0.666266024113     0.000003427196     
34.255001068115     0.660965025425     0.000003356655     
34.360000610352     0.655830025673     0.000003285729     
34.465000152588     0.650529026985     0.000003214418     
34.569999694824     0.645228028297     0.000003143106     
34.674999237061     0.639927029610     0.000003072565     
34.779998779297     0.634791016579     0.000003002796     
34.884998321533     0.629490971565     0.000002932255     
34.990001678467     0.624189972878     0.000002862871     
35.095001220703     0.618888974190     0.000002794258     
35.200000762939     0.613587975502     0.000002724102     
35.305000305176     0.608452022076     0.000002655489     
