
Cycle 1
Physical Cycle 1
Step 1

Time (s),          Potential (V),         Current (A)
0.104999996722     0.002475999994     -0.000000233060     
0.209999993443     0.007757000159     -0.000000217777     
0.314999997616     0.013039000332     -0.000000202494     
0.419999986887     0.018319999799     -0.000000187212     
0.449999988079     0.028387999162     -0.000000143871     
0.555000007153     0.033668998629     -0.000000132715     
0.660000026226     0.038950998336     -0.000000121559     
0.764999985695     0.044231999665     -0.000000111173     
0.795000016689     0.054299999028     -0.000000092514     
0.899999976158     0.059581000358     -0.000000084815     
1.004999995232     0.064698003232     -0.000000076779     
1.110000014305     0.069978997111     -0.000000069753     
1.215000033379     0.075259998441     -0.000000063737     
1.320000052452     0.080541998148     -0.000000057132     
1.424999952316     0.085822999477     -0.000000050906     
1.529999971390     0.091104999185     -0.000000045857     
1.634999990463     0.096386000514     -0.000000039967     
1.740000009537     0.101668000221     -0.000000034119     
1.845000028610     0.106784000993     -0.000000028818     
1.950000047684     0.112065002322     -0.000000023476     
2.055000066757     0.117347002029     -0.000000016955     
2.130000114441     0.125103995204     -0.000000007438     
2.234999895096     0.130384996533     -0.000000000204     
2.339999914169     0.135666996241     0.000000006992     
2.444999933243     0.140782997012     0.000000015824     
2.549999952316     0.146064996719     0.000000025834     
2.654999971390     0.151180997491     0.000000036213     
2.759999990463     0.156462997198     0.000000048229     
2.865000009537     0.161578997970     0.000000062174     
2.970000028610     0.166694998741     0.000000076707     
3.029999971390     0.175607994199     0.000000106818     
3.134999990463     0.181053996086     0.000000125497     
3.240000009537     0.186170995235     0.000000145523     
3.345000028610     0.191451996565     0.000000167274     
3.450000047684     0.196733996272     0.000000189319     
3.555000066757     0.202014997602     0.000000211953     
3.660000085831     0.207295998931     0.000000235512     
3.765000104904     0.212577998638     0.000000258609     
3.869999885559     0.217693999410     0.000000281622     
3.974999904633     0.222975999117     0.000000305097     
4.079999923706     0.228257000446     0.000000327858     
4.184999942780     0.233539000154     0.000000349566     
4.289999961853     0.238655000925     0.000000371696     
4.394999980927     0.244101002812     0.000000393152     
4.500000000000     0.249218001962     0.000000413009     
4.605000019073     0.254498988390     0.000000432993     
4.710000038147     0.259615987539     0.000000452640     
4.815000057220     0.265062004328     0.000000471067     
4.920000076294     0.270179003477     0.000000488863     
5.025000095367     0.275460004807     0.000000506701     
5.130000114441     0.280741006136     0.000000523235     
5.235000133514     0.286022990942     0.000000539095     
5.340000152588     0.291303992271     0.000000554956     
5.445000171661     0.296420991421     0.000000569428     
5.550000190735     0.301701992750     0.000000583270     
5.655000209808     0.306984007359     0.000000597153     
5.760000228882     0.312265008688     0.000000609480     
5.864999771118     0.317546010017     0.000000621470     
5.969999790192     0.322827994823     0.000000632871     
6.074999809265     0.328108996153     0.000000643347     
6.179999828339     0.333225995302     0.000000652560     
6.284999847412     0.338506996632     0.000000661690     
6.389999866486     0.343789011240     0.000000669893     
6.494999885559     0.349070012569     0.000000676835     
6.599999904633     0.354351013899     0.000000683693     
6.704999923706     0.359632998705     0.000000690087     
6.809999942780     0.364914000034     0.000000694968     
6.914999961853     0.370196014643     0.000000699679     
7.019999980927     0.375312000513     0.000000704391     
7.125000000000     0.380593985319     0.000000707757     
7.230000019073     0.385874986649     0.000000710660     
7.335000038147     0.391155987978     0.000000714026     
7.440000057220     0.396438002586     0.000000716508     
7.545000076294     0.401719003916     0.000000718527     
7.650000095367     0.406836003065     0.000000721094     
7.755000114441     0.412281990051     0.000000722734     
7.860000133514     0.417564004660     0.000000724375     
7.965000152588     0.422845005989     0.000000726352     
8.069999694824     0.427960991859     0.000000727909     
8.175000190735     0.433243006468     0.000000729424     
8.279999732971     0.438524007797     0.000000731569     
8.385000228882     0.443805992603     0.000000733631     
8.489999771118     0.449086993933     0.000000734893     
8.595000267029     0.454369008541     0.000000737375     
8.699999809265     0.459650009871     0.000000739731     
8.805000305176     0.464931011200     0.000000741245     
8.909999847412     0.470048010349     0.000000743643     
9.015000343323     0.475329011679     0.000000746462     
9.119999885559     0.480610996485     0.000000748902     
9.225000381470     0.485891997814     0.000000751300     
9.329999923706     0.491174012423     0.000000754708     
9.435000419617     0.496455013752     0.000000757569     
9.539999961853     0.501735985279     0.000000760556     
9.645000457764     0.507018029690     0.000000764132     
9.750000000000     0.512299001217     0.000000767456     
9.854999542236     0.517580986023     0.000000770989     
9.960000038147     0.522862017155     0.000000775112     
10.064999580383     0.527979016304     0.000000778983     
10.170000076294     0.533259987831     0.000000782685     
10.274999618530     0.538541972637     0.000000787313     
10.380000114441     0.543823003769     0.000000791688     
10.484999656677     0.549103975296     0.000000795348     
10.590000152588     0.554386019707     0.000000800145     
10.694999694824     0.559666991234     0.000000805235     
10.800000190735     0.564948976040     0.000000808979     
10.904999732971     0.570065021515     0.000000813944     
11.010000228882     0.575347006321     0.000000819161     
11.114999771118     0.580793023109     0.000000823578     
11.220000267029     0.585909008980     0.000000828290     
11.324999809265     0.591190993786     0.000000833591     
11.430000305176     0.596472024918     0.000000838261     
11.534999847412     0.601754009724     0.000000842931     
11.640000343323     0.607034981251     0.000000848442     
11.744999885559     0.612317025661     0.000000853112     
11.850000381470     0.617597997189     0.000000857992     
11.954999923706     0.622713983059     0.000000863082     
12.060000419617     0.627996027470     0.000000867626     
12.164999961853     0.633441984653     0.000000871959     
12.270000457764     0.638558983803     0.000000876755     
12.375000000000     0.643840014935     0.000000881299     
12.479999542236     0.649121999741     0.000000885001     
12.585000038147     0.654402971268     0.000000889461     
12.689999580383     0.659684002399     0.000000893710     
12.795000076294     0.664965987206     0.000000896781     
12.899999618530     0.670081973076     0.000000900568     
13.005000114441     0.675364017487     0.000000904312     
13.109999656677     0.680809974670     0.000000907341     
13.215000152588     0.685926973820     0.000000910454     
13.319999694824     0.691372990608     0.000000913946     
13.425000190735     0.696488976479     0.000000916723     
13.529999732971     0.701771020889     0.000000919373     
13.635000228882     0.707051992416     0.000000922781     
13.739999771118     0.712333977222     0.000000925473     
13.845000267029     0.717450022697     0.000000928208     
13.949999809265     0.722732007504     0.000000931279     
14.055000305176     0.728012979031     0.000000934266     
14.159999847412     0.733294010162     0.000000937337     
14.265000343323     0.738575994968     0.000000940913     
14.369999885559     0.743857026100     0.000000944447     
14.475000381470     0.749139010906     0.000000947561     
14.579999923706     0.754419982433     0.000000951894     
14.685000419617     0.759702026844     0.000000955975     
14.789999961853     0.764982998371     0.000000959340     
14.895000457764     0.770264983177     0.000000964052     
15.000000000000     0.775546014309     0.000000969227     
15.104999542236     0.780662000179     0.000000973602     
15.210000038147     0.785943984985     0.000000978651     
15.314999580383     0.791225016117     0.000000984457     
15.420000076294     0.796507000923     0.000000989842     
15.524999618530     0.801787972450     0.000000995185     
15.630000114441     0.807070016861     0.000001001664     
15.734999656677     0.812350988388     0.000001007764     
15.840000152588     0.817632019520     0.000001014117     
15.944999694824     0.822749018669     0.000001021142     
16.049999237061     0.828029990196     0.000001027958     
16.155000686646     0.833311975002     0.000001034815     
16.180000305176     0.844205021858     0.000001053641     
16.284999847412     0.849485993385     0.000001060566     
16.389999389648     0.854767978191     0.000001067874     
16.495000839233     0.859884023666     0.000001076337     
16.600000381470     0.865329980850     0.000001084416     
16.704999923706     0.870446980000     0.000001092494     
16.809999465942     0.875728011131     0.000001101342     
16.915000915527     0.881009995937     0.000001110189     
17.020000457764     0.886291027069     0.000001118268     
17.125000000000     0.891573011875     0.000001127500     
17.229999542236     0.896853983402     0.000001137502     
17.334999084473     0.902135014534     0.000001146734     
17.440000534058     0.907416999340     0.000001156351     
17.545000076294     0.912532985210     0.000001167122     
17.649999618530     0.917980015278     0.000001177124     
17.754999160767     0.923096001148     0.000001187510     
17.860000610352     0.928377985954     0.000001198666     
17.965000152588     0.933659017086     0.000001209437     
18.069999694824     0.938939988613     0.000001220977     
18.174999237061     0.944221973419     0.000001233287     
18.280000686646     0.949503004551     0.000001245212     
18.385000228882     0.954784989357     0.000001257522     
18.489999771118     0.960066020489     0.000001270986     
18.594999313354     0.965183019638     0.000001284065     
18.700000762939     0.970628976822     0.000001297529     
18.805000305176     0.975910007954     0.000001311762     
18.909999847412     0.981027007103     0.000001327149     
19.014999389648     0.986307978630     0.000001341383     
19.120000839233     0.991590023041     0.000001357539     
19.225000381470     0.997035980225     0.000001374465     
19.329999923706     1.002153038979     0.000001390622     
19.434999465942     1.007434010506     0.000001408317     
19.540000915527     1.012716054916     0.000001426397     
19.645000457764     1.017832040787     0.000001444862     
19.750000000000     1.023113012314     0.000001464096     
19.854999542236     1.028395056725     0.000001484869     
19.959999084473     1.033676028252     0.000001505257     
20.065000534058     1.038957953453     0.000001526799     
20.170000076294     1.044239044189     0.000001550649     
20.274999618530     1.049520969391     0.000001573730     
20.379999160767     1.054801940918     0.000001597580     
20.485000610352     1.060083031654     0.000001622969     
20.590000152588     1.065199971199     0.000001648358     
20.694999694824     1.070480942726     0.000001675286     
20.799999237061     1.075762987137     0.000001703367     
20.905000686646     1.081043958664     0.000001732603     
21.010000228882     1.086326003075     0.000001761454     
21.114999771118     1.091606974602     0.000001792229     
21.219999313354     1.096887946129     0.000001824157     
21.325000762939     1.102005004883     0.000001856086     
21.430000305176     1.107285976410     0.000001889553     
21.534999847412     1.112568020821     0.000001923405     
21.639999389648     1.117848992348     0.000001959180     
21.745000839233     1.123131036758     0.000001994571     
21.850000381470     1.128412008286     0.000002031885     
21.954999923706     1.133692979813     0.000002069199     
22.059999465942     1.138975024223     0.000002107667     
22.165000915527     1.144091010094     0.000002147289     
22.270000457764     1.149373054504     0.000002186527     
22.375000000000     1.154654026031     0.000002227303     
22.479999542236     1.159935951233     0.000002268464     
22.584999084473     1.165217041969     0.000002310394     
22.690000534058     1.170498013496     0.000002352709     
22.795000076294     1.175780057907     0.000002396178     
22.899999618530     1.181061029434     0.000002440032     
23.004999160767     1.186342954636     0.000002483116     
23.110000610352     1.191624045372     0.000002528508     
23.215000152588     1.196740984917     0.000002574285     
23.319999694824     1.197401046753     0.000002509659     
23.424999237061     1.192283987999     0.000002337706     
23.530000686646     1.187003016472     0.000002183065     
23.635000228882     1.181720972061     0.000002039579     
23.739999771118     1.176604986191     0.000001907633     
23.844999313354     1.171324014664     0.000001787228     
23.950000762939     1.166041970253     0.000001673747     
24.055000305176     1.160760998726     0.000001569114     
24.159999847412     1.155478954315     0.000001472944     
24.264999389648     1.150197982788     0.000001382159     
24.370000839233     1.144916057587     0.000001298683     
24.475000381470     1.139799952507     0.000001221362     
24.579999923706     1.134353995323     0.000001148273     
24.684999465942     1.129237055779     0.000001080184     
24.790000915527     1.123790979385     0.000001017866     
24.895000457764     1.118674039841     0.000000959010     
25.000000000000     1.113392949104     0.000000903616     
25.104999542236     1.108111023903     0.000000853222     
25.209999084473     1.102830052376     0.000000805907     
25.315000534058     1.097548961639     0.000000761284     
25.420000076294     1.092267036438     0.000000720123     
25.524999618530     1.086985945702     0.000000681655     
25.629999160767     1.081869006157     0.000000645495     
25.735000610352     1.076588034630     0.000000612027     
25.840000152588     1.071305990219     0.000000581253     
25.944999694824     1.066025018692     0.000000552017     
26.049999237061     1.060744047165     0.000000524705     
26.155000686646     1.055462002754     0.000000499701     
26.260000228882     1.050181031227     0.000000476235     
26.364999771118     1.044898986816     0.000000453924     
26.469999313354     1.039618015289     0.000000433920     
26.575000762939     1.034335970879     0.000000414686     
26.680000305176     1.029219985008     0.000000396606     
26.784999847412     1.023939013481     0.000000380065     
26.889999389648     1.018656969070     0.000000364678     
26.995000839233     1.013375997543     0.000000349290     
27.100000381470     1.008259057999     0.000000336211     
27.204999923706     1.002812981606     0.000000323517     
27.290000915527     0.995550990105     0.000000307580     
27.395000457764     0.990104019642     0.000000297020     
27.500000000000     0.984822988510     0.000000286965     
27.604999542236     0.979707002640     0.000000276910     
27.709999084473     0.974425017834     0.000000267444     
27.815000534058     0.969143986702     0.000000259324     
27.920000076294     0.963862001896     0.000000250784     
28.024999618530     0.958580970764     0.000000242706     
28.129999160767     0.953298985958     0.000000235639     
28.235000610352     0.948183000088     0.000000228444     
28.340000152588     0.942902028561     0.000000221587     
28.444999694824     0.937619984150     0.000000215529     
28.549999237061     0.932339012623     0.000000209428     
28.655000686646     0.927057027817     0.000000203328     
28.760000228882     0.921775996685     0.000000198153     
28.864999771118     0.916658997536     0.000000192979     
28.969999313354     0.911212980747     0.000000187215     
29.075000762939     0.905930995941     0.000000183008     
29.180000305176     0.900815010071     0.000000178380     
29.284999847412     0.895533978939     0.000000173205     
29.389999389648     0.890251994133     0.000000169083     
29.495000839233     0.884971022606     0.000000165380     
29.600000381470     0.879688978195     0.000000160837     
29.704999923706     0.874408006668     0.000000156756     
29.809999465942     0.869126021862     0.000000153348     
29.915000915527     0.863844990730     0.000000149604     
30.020000457764     0.858564019203     0.000000145733     
30.125000000000     0.853281974792     0.000000142662     
30.229999542236     0.848001003265     0.000000139086     
30.334999084473     0.842884004116     0.000000135762     
30.440000534058     0.837437987328     0.000000132733     
30.545000076294     0.832320988178     0.000000129620     
30.649999618530     0.827040016651     0.000000126381     
30.754999160767     0.821758985519     0.000000123856     
30.860000610352     0.816477000713     0.000000120996     
30.965000152588     0.811196029186     0.000000117504     
31.069999694824     0.806078970432     0.000000115232     
31.174999237061     0.800797998905     0.000000112834     
31.280000686646     0.795516014099     0.000000109426     
31.385000228882     0.790234982967     0.000000107028     
31.489999771118     0.784954011440     0.000000104756     
31.594999313354     0.779672026634     0.000000101980     
31.700000762939     0.774390995502     0.000000099119     
31.805000305176     0.769109010696     0.000000097099     
31.909999847412     0.763827979565     0.000000094659     
32.014999389648     0.758545994759     0.000000091967     
32.119998931885     0.753430008888     0.000000089905     
32.224998474121     0.748148977757     0.000000087507     
32.330001831055     0.742702007294     0.000000084941     
32.435001373291     0.737586021423     0.000000082922     
32.540000915527     0.732303977013     0.000000080650     
32.645000457764     0.727023005486     0.000000078125     
32.750000000000     0.721741020679     0.000000076316     
32.854999542236     0.716624975204     0.000000074045     
32.959999084473     0.711178004742     0.000000071310     
33.064998626709     0.706062018871     0.000000069669     
33.169998168945     0.700780987740     0.000000067692     
33.275001525879     0.695334017277     0.000000064915     
33.380001068115     0.690217971802     0.000000062980     
33.485000610352     0.684935986996     0.000000061129     
33.590000152588     0.679655015469     0.000000058773     
33.694999694824     0.674372971058     0.000000056417     
33.799999237061     0.669091999531     0.000000054734     
33.904998779297     0.663811028004     0.000000052588     
34.009998321533     0.658694028854     0.000000049938     
34.115001678467     0.653248012066     0.000000048466     
34.220001220703     0.648131012917     0.000000046110     
34.325000762939     0.642849981785     0.000000043964     
34.430000305176     0.637567996979     0.000000042239     
34.534999847412     0.632287025452     0.000000040009     
34.639999389648     0.627005994320     0.000000037695     
34.744998931885     0.621724009514     0.000000036055     
34.849998474121     0.616442978382     0.000000033951     
34.955001831055     0.611160993576     0.000000031343     
35.060001373291     0.605880022049     0.000000029744     
35.165000915527     0.600597977638     0.000000027767     
