
Cycle 1
Physical Cycle 1
Step 1

Time (s),          Potential (V),         Current (A)
0.104999996722     0.002475999994     -0.000001256994     
0.209999993443     0.007757000159     -0.000001188222     
0.314999997616     0.013039000332     -0.000001130912     
0.419999986887     0.018319999799     -0.000001077423     
0.449999988079     0.028387999162     -0.000000962472     
0.555000007153     0.033668998629     -0.000000917080     
0.660000026226     0.038950998336     -0.000000873611     
0.764999985695     0.044231999665     -0.000000830911     
0.870000004768     0.049348000437     -0.000000791673     
0.975000023842     0.054795000702     -0.000000752821     
1.080000042915     0.060075998306     -0.000000715122     
1.184999942780     0.065357998013     -0.000000679347     
1.289999961853     0.070473998785     -0.000000645495     
1.394999980927     0.075920999050     -0.000000612027     
1.500000000000     0.081202000380     -0.000000580484     
1.605000019073     0.086318001151     -0.000000550094     
1.710000038147     0.091600000858     -0.000000519319     
1.815000057220     0.096881002188     -0.000000491238     
1.919999957085     0.102163001895     -0.000000463156     
2.025000095367     0.107444003224     -0.000000435844     
2.130000114441     0.112561002374     -0.000000409301     
2.234999895096     0.118006996810     -0.000000385835     
2.339999914169     0.123288996518     -0.000000363139     
2.444999933243     0.128405004740     -0.000000338519     
2.549999952316     0.133686006069     -0.000000315823     
2.654999971390     0.138968005776     -0.000000293512     
2.700000047684     0.148375004530     -0.000000251878     
2.805000066757     0.153492003679     -0.000000232105     
2.910000085831     0.158938005567     -0.000000213173     
3.015000104904     0.164220005274     -0.000000192053     
3.119999885559     0.169336006045     -0.000000173205     
3.224999904633     0.174618005753     -0.000000155283     
3.329999923706     0.179899007082     -0.000000137277     
3.434999942780     0.185179993510     -0.000000120491     
3.539999961853     0.190461993217     -0.000000104083     
3.644999980927     0.195742994547     -0.000000086750     
3.750000000000     0.201024994254     -0.000000071310     
3.855000019073     0.206140995026     -0.000000056880     
3.960000038147     0.211422994733     -0.000000040893     
4.065000057220     0.216703996062     -0.000000025453     
4.170000076294     0.221984997392     -0.000000011317     
4.275000095367     0.227266997099     0.000000003029     
4.380000114441     0.232382997870     0.000000019100     
4.434999942780     0.240966007113     0.000000042519     
4.539999961853     0.246081992984     0.000000058905     
4.644999980927     0.251363009214     0.000000074948     
4.690000057220     0.260935992002     0.000000110310     
4.795000076294     0.266216993332     0.000000127559     
4.900000095367     0.271499007940     0.000000146575     
5.005000114441     0.276780009270     0.000000166390     
5.110000133514     0.282061994076     0.000000186626     
5.215000152588     0.287178009748     0.000000208671     
5.320000171661     0.292459994555     0.000000231516     
5.425000190735     0.297740995884     0.000000255748     
5.530000209808     0.303021997213     0.000000279981     
5.635000228882     0.308304011822     0.000000306065     
5.739999771118     0.313585013151     0.000000333285     
5.844999790192     0.318702012300     0.000000360463     
5.949999809265     0.323983013630     0.000000389407     
6.054999828339     0.329264998436     0.000000419530     
6.159999847412     0.334545999765     0.000000448853     
6.264999866486     0.339661985636     0.000000479902     
6.369999885559     0.344944000244     0.000000512843     
6.474999904633     0.350225001574     0.000000545027     
6.579999923706     0.355506986380     0.000000578684     
6.684999942780     0.360623002052     0.000000614444     
6.789999961853     0.365904986858     0.000000650078     
6.894999980927     0.371185988188     0.000000684702     
7.000000000000     0.376466989517     0.000000722734     
7.105000019073     0.381583988667     0.000000760093     
7.210000038147     0.386864989996     0.000000797999     
7.315000057220     0.392147004604     0.000000836578     
7.420000076294     0.397428005934     0.000000874862     
7.525000095367     0.402709990740     0.000000912894     
7.630000114441     0.407990992069     0.000000953955     
7.735000133514     0.413107007742     0.000000994091     
7.755000114441     0.424165010452     0.000001080954     
7.860000133514     0.429446995258     0.000001120576     
7.965000152588     0.434727996588     0.000001160583     
8.069999694824     0.440010011196     0.000001202513     
8.175000190735     0.445291012526     0.000001242904     
8.279999732971     0.450572997332     0.000001285604     
8.385000228882     0.455689013004     0.000001328688     
8.489999771118     0.460970014334     0.000001372157     
8.595000267029     0.466251999140     0.000001414857     
8.699999809265     0.471533000469     0.000001456787     
8.805000305176     0.476814985275     0.000001500641     
8.909999847412     0.482095986605     0.000001544494     
9.015000343323     0.487378001213     0.000001586809     
9.119999885559     0.492659002542     0.000001632201     
9.225000381470     0.497940003872     0.000001675286     
9.329999923706     0.503057003021     0.000001718755     
9.435000419617     0.508337974548     0.000001762608     
9.539999961853     0.513620018959     0.000001806847     
9.645000457764     0.518900990486     0.000001849546     
9.750000000000     0.524182975292     0.000001892631     
9.854999542236     0.529464006424     0.000001935330     
9.960000038147     0.534744977951     0.000001976106     
10.064999580383     0.540027022362     0.000002018037     
10.170000076294     0.545307993889     0.000002058428     
10.274999618530     0.550424993038     0.000002098820     
10.380000114441     0.555706024170     0.000002140750     
10.484999656677     0.560988008976     0.000002181141     
10.590000152588     0.566268980503     0.000002221148     
10.694999694824     0.571550011635     0.000002257308     
10.800000190735     0.576831996441     0.000002297700     
10.904999732971     0.582113027573     0.000002336552     
11.010000228882     0.587395012379     0.000002375020     
11.114999771118     0.592675983906     0.000002413873     
11.220000267029     0.597792983055     0.000002451572     
11.324999809265     0.603238999844     0.000002489655     
11.430000305176     0.608355998993     0.000002528124     
11.534999847412     0.613636970520     0.000002566207     
11.640000343323     0.618918001652     0.000002603136     
11.744999885559     0.624199986458     0.000002640450     
11.850000381470     0.629481017590     0.000002678918     
11.954999923706     0.634598016739     0.000002717771     
12.060000419617     0.639878988266     0.000002755470     
12.164999961853     0.645160973072     0.000002795862     
12.270000457764     0.650442004204     0.000002835099     
12.375000000000     0.655722975731     0.000002874721     
12.479999542236     0.661005020142     0.000002914343     
12.585000038147     0.666285991669     0.000002954350     
12.689999580383     0.671567976475     0.000002995896     
12.795000076294     0.676684021950     0.000003037826     
12.899999618530     0.682130992413     0.000003079371     
13.005000114441     0.687412023544     0.000003121302     
13.109999656677     0.692692995071     0.000003164001     
13.215000152588     0.697974979877     0.000003206316     
13.319999694824     0.703091025352     0.000003248631     
13.425000190735     0.708373010159     0.000003292485     
13.529999732971     0.713653981686     0.000003337492     
13.635000228882     0.718936026096     0.000003380577     
13.739999771118     0.724052011967     0.000003424815     
13.845000267029     0.729498028755     0.000003469438     
13.949999809265     0.734780013561     0.000003513676     
14.055000305176     0.739895999432     0.000003557915     
14.159999847412     0.745177984238     0.000003603692     
14.265000343323     0.750459015369     0.000003649084     
14.369999885559     0.755905985832     0.000003693322     
14.475000381470     0.761021971703     0.000003739099     
14.579999923706     0.766303002834     0.000003784876     
14.685000419617     0.771584987640     0.000003831807     
14.789999961853     0.776866018772     0.000003880277     
14.895000457764     0.781983017921     0.000003927208     
15.000000000000     0.787428975105     0.000003975293     
15.104999542236     0.792545974255     0.000004022994     
15.210000038147     0.797991991043     0.000004070694     
15.314999580383     0.803107976913     0.000004119164     
15.420000076294     0.808390021324     0.000004167249     
15.524999618530     0.813670992851     0.000004215334     
15.630000114441     0.818952977657     0.000004263035     
15.734999656677     0.824234008789     0.000004311889     
15.840000152588     0.829515993595     0.000004361898     
15.944999694824     0.834631979465     0.000004412291     
16.049999237061     0.839913010597     0.000004463454     
16.155000686646     0.845194995403     0.000004511539     
16.260000228882     0.850476026535     0.000004561547     
16.364999771118     0.855758011341     0.000004614249     
16.469999313354     0.861038982868     0.000004666565     
16.575000762939     0.866321027279     0.000004718497     
16.680000305176     0.871437013149     0.000004771968     
16.784999847412     0.876718997955     0.000004826977     
16.889999389648     0.882000029087     0.000004881602     
16.995000839233     0.887281000614     0.000004935842     
17.100000381470     0.892562985420     0.000004997391     
17.204999923706     0.897844016552     0.000005063941     
17.309999465942     0.903126001358     0.000005134337     
17.415000915527     0.908406972885     0.000005206273     
17.520000457764     0.913689017296     0.000005285517     
17.625000000000     0.918805003166     0.000005361299     
17.729999542236     0.924085974693     0.000005446698     
17.834999084473     0.929368019104     0.000005524404     
17.940000534058     0.934648990631     0.000005604033     
18.045000076294     0.939930975437     0.000005695202     
18.149999618530     0.945212006569     0.000005795989     
18.254999160767     0.950493991375     0.000005896775     
18.360000610352     0.955775022507     0.000006009487     
18.465000152588     0.961055994034     0.000006126045     
18.569999694824     0.966337978840     0.000006251836     
18.674999237061     0.971454024315     0.000006362239     
18.780000686646     0.976736009121     0.000006477259     
18.885000228882     0.982016980648     0.000006583046     
18.989999771118     0.987299025059     0.000006691141     
19.094999313354     0.992415010929     0.000006799621     
19.200000762939     0.997695982456     0.000006926181     
19.305000305176     1.002977967262     0.000007033507     
19.409999847412     1.008259057999     0.000007150835     
19.514999389648     1.013540983200     0.000007283165     
19.620000839233     1.018656969070     0.000007374335     
19.725000381470     1.024103999138     0.000007500510     
19.829999923706     1.029219985008     0.000007622454     
19.934999465942     1.034500956535     0.000007740936     
20.040000915527     1.039783000946     0.000007854801     
20.145000457764     1.045063972473     0.000007968667     
20.250000000000     1.050346016884     0.000008092534     
20.354999542236     1.055626988411     0.000008211785     
20.459999084473     1.060909032822     0.000008328344     
20.565000534058     1.066025018692     0.000008443748     
20.670000076294     1.071305990219     0.000008569539     
20.774999618530     1.076588034630     0.000008680711     
20.879999160767     1.081869006157     0.000008811888     
20.985000610352     1.087151050568     0.000008946526     
21.090000152588     1.092432022095     0.000009060007     
21.194999694824     1.097548961639     0.000009188490     
21.299999237061     1.102830052376     0.000009346594     
21.405000686646     1.108111023903     0.000009489696     
21.475000381470     1.116858959198     0.000009708272     
21.579999923706     1.121974945068     0.000009861098     
21.684999465942     1.127256989479     0.000009998641     
21.790000915527     1.132537961006     0.000010143826     
21.895000457764     1.137820005417     0.000010315755     
22.000000000000     1.143100976944     0.000010438016     
22.104999542236     1.148216962814     0.000010587021     
22.209999084473     1.153663992882     0.000010709282     
22.315000534058     1.158779978752     0.000010846825     
22.420000076294     1.164062023163     0.000010988189     
22.524999618530     1.169342994690     0.000011114271     
22.629999160767     1.174625039101     0.000011244173     
22.735000610352     1.179906010628     0.000011370254     
22.840000152588     1.185186982155     0.000011503977     
22.944999694824     1.190469026566     0.000011664444     
23.049999237061     1.195749998093     0.000011798167     
23.155000686646     1.198390960693     0.000011844015     
23.260000228882     1.193604946136     0.000011641521     
23.364999771118     1.188323020935     0.000011450488     
23.469999313354     1.183042049408     0.000011278559     
23.575000762939     1.177924990654     0.000011106630     
23.680000305176     1.172479033470     0.000010949983     
23.784999847412     1.167197942734     0.000010789516     
23.889999389648     1.162081003189     0.000010606124     
23.995000839233     1.156800031662     0.000010464760     
24.100000381470     1.151517987251     0.000010338679     
24.204999923706     1.146237015724     0.000010178212     
24.309999465942     1.140954971313     0.000010052130     
24.415000915527     1.135673999786     0.000009895484     
24.520000457764     1.130393028259     0.000009784685     
24.625000000000     1.125110983849     0.000009631859     
24.729999542236     1.119830012321     0.000009521060     
24.834999084473     1.114712953568     0.000009379696     
24.940000534058     1.109266996384     0.000009268897     
25.045000076294     1.104150056839     0.000009123712     
25.149999618530     1.098868966103     0.000009009093     
25.254999160767     1.093587994576     0.000008913576     
25.360000610352     1.088305950165     0.000008772212     
25.465000152588     1.083024978638     0.000008688158     
25.569999694824     1.077908039093     0.000008588821     
25.674999237061     1.072461962700     0.000008485664     
25.780000686646     1.067345023155     0.000008401609     
25.885000228882     1.062064051628     0.000008244963     
25.989999771118     1.056617021561     0.000008199115     
26.094999313354     1.051501035690     0.000008069213     
26.200000762939     1.046219944954     0.000007966055     
26.305000305176     1.040938019753     0.000007889642     
26.409999847412     1.035657048225     0.000007790305     
26.514999389648     1.030375003815     0.000007679506     
26.620000839233     1.025094032288     0.000007603094     
26.725000381470     1.019976973534     0.000007515219     
26.829999923706     1.014696002007     0.000007408240     
26.934999465942     1.009415030479     0.000007324186     
27.040000915527     1.004132986069     0.000007213387     
27.145000457764     0.998852014542     0.000007121692     
27.250000000000     0.993570029736     0.000007026175     
27.354999542236     0.988288998604     0.000006930659     
27.459999084473     0.983171999454     0.000006850425     
27.565000534058     0.977725982666     0.000006751089     
27.670000076294     0.972609996796     0.000006636469     
27.774999618530     0.967328011990     0.000006586801     
27.879999160767     0.962046980858     0.000006495105     
27.985000610352     0.956764996052     0.000006430154     
28.090000152588     0.951484024525     0.000006330817     
28.194999694824     0.946201980114     0.000006254404     
28.299999237061     0.940921008587     0.000006189453     
28.405000686646     0.935639977455     0.000006116861     
28.510000228882     0.930357992649     0.000006048089     
28.614999771118     0.925077021122     0.000005956393     
28.719999313354     0.919960021973     0.000005845594     
28.825000762939     0.914678990841     0.000005776823     
28.930000305176     0.909232020378     0.000005715692     
29.034999847412     0.904115974903     0.000005639279     
29.139999389648     0.898835003376     0.000005574328     
29.245000839233     0.893553018570     0.000005497915     
29.350000381470     0.888271987438     0.000005413861     
29.454999923706     0.883154988289     0.000005383296     
29.559999465942     0.877708971500     0.000005268676     
29.665000915527     0.872591972351     0.000005196084     
29.770000457764     0.867146015167     0.000005154057     
29.875000000000     0.862030029297     0.000005054720     
29.979999542236     0.856747984886     0.000004970666     
30.084999084473     0.851302027702     0.000004940100     
30.190000534058     0.846185028553     0.000004829302     
30.295000076294     0.840903997421     0.000004749068     
30.399999618530     0.835786998272     0.000004691758     
30.504999160767     0.830340981483     0.000004600063     
30.610000610352     0.825058996677     0.000004565677     
30.715000152588     0.819778025150     0.000004485443     
30.819999694824     0.814496994019     0.000004374644     
30.924999237061     0.809379994869     0.000004389927     
31.030000686646     0.804099023342     0.000004233280     
31.135000228882     0.798816978931     0.000004172150     
31.239999771118     0.793536007404     0.000004130123     
31.344999313354     0.788254022598     0.000004015503     
31.450000762939     0.782972991467     0.000003981117     
31.555000305176     0.777692019939     0.000003893242     
31.659999847412     0.772409975529     0.000003816829     
31.764999389648     0.767129004002     0.000003759520     
31.870000839233     0.761847019196     0.000003679286     
31.975000381470     0.756730973721     0.000003629618     
32.080001831055     0.751448988914     0.000003560846     
32.159999847412     0.743691980839     0.000003460975     
32.264999389648     0.738411009312     0.000003404427     
32.369998931885     0.733129024506     0.000003336338     
32.474998474121     0.727847993374     0.000003271327     
32.580001831055     0.722567021847     0.000003196314     
32.685001373291     0.717284977436     0.000003137843     
32.790000915527     0.712168991566     0.000003068985     
32.895000457764     0.706887006760     0.000003003974     
33.000000000000     0.701605975628     0.000002939348     
33.104999542236     0.696323990822     0.000002888185     
33.209999084473     0.691043019295     0.000002808556     
33.314998626709     0.685761988163     0.000002745853     
33.419998168945     0.680480003357     0.000002698537     
33.525001525879     0.675198972225     0.000002620447     
33.630001068115     0.669916987419     0.000002563130     
33.735000610352     0.664636015892     0.000002499657     
33.840000152588     0.659519016743     0.000002447725     
33.944999694824     0.654237985611     0.000002384253     
34.049999237061     0.648957014084     0.000002325781     
34.154998779297     0.643675029278     0.000002259232     
34.259998321533     0.638393998146     0.000002205376     
34.365001678467     0.633112013340     0.000002150751     
34.470001220703     0.627996027470     0.000002088433     
34.575000762939     0.622548997402     0.000002031500     
34.680000305176     0.617268025875     0.000001967643     
34.784999847412     0.612151980400     0.000001914557     
34.889999389648     0.606869995594     0.000001858394     
34.994998931885     0.601589024067     0.000001802615     
35.099998474121     0.596306979656     0.000001747221     
