
Cycle 1
Physical Cycle 1
Step 1

Time (s),          Potential (V),         Current (A)
0.104999996722     0.002641000086     -0.000000206315     
0.209999993443     0.007922000252     -0.000000183391     
0.314999997616     0.013203999959     -0.000000171929     
0.419999986887     0.018485000357     -0.000000156647     
0.449999988079     0.028387999162     -0.000000115020     
0.555000007153     0.033833999187     -0.000000102325     
0.660000026226     0.039115998894     -0.000000091939     
0.764999985695     0.044231999665     -0.000000082322     
0.795000016689     0.054299999028     -0.000000063232     
0.899999976158     0.059581000358     -0.000000054187     
1.004999995232     0.064862996340     -0.000000046278     
1.110000014305     0.070143997669     -0.000000039210     
1.215000033379     0.075425997376     -0.000000031637     
1.320000052452     0.080706998706     -0.000000024780     
1.424999952316     0.085822999477     -0.000000018553     
1.529999971390     0.091269999743     -0.000000011107     
1.634999990463     0.096551001072     -0.000000004123     
1.730000019073     0.103152997792     0.000000004555     
1.835000038147     0.108433999121     0.000000011739     
1.940000057220     0.113550998271     0.000000018672     
2.045000076294     0.118831999600     0.000000027377     
2.150000095367     0.123948998749     0.000000036013     
2.255000114441     0.129229992628     0.000000045476     
2.359999895096     0.134347006679     0.000000056764     
2.464999914169     0.139627993107     0.000000069277     
2.569999933243     0.144743993878     0.000000081316     
2.654999971390     0.152501001954     0.000000104883     
2.759999990463     0.157783001661     0.000000121669     
2.865000009537     0.163064002991     0.000000139591     
2.970000028610     0.168346002698     0.000000159911     
3.075000047684     0.173627004027     0.000000181367     
3.180000066757     0.178744003177     0.000000203244     
3.285000085831     0.184025004506     0.000000227519     
3.390000104904     0.189307004213     0.000000253224     
3.494999885559     0.194588005543     0.000000278256     
3.599999904633     0.199869006872     0.000000303751     
3.704999923706     0.205151006579     0.000000330719     
3.809999942780     0.210267007351     0.000000356298     
3.914999961853     0.215549007058     0.000000381793     
4.019999980927     0.220829993486     0.000000408171     
4.125000000000     0.226111993194     0.000000433329     
4.230000019073     0.231392994523     0.000000457814     
4.335000038147     0.236508995295     0.000000482678     
4.440000057220     0.241790995002     0.000000506238     
4.545000076294     0.247071996331     0.000000528620     
4.650000095367     0.252353996038     0.000000551338     
4.755000114441     0.257634997368     0.000000573046     
4.860000133514     0.262751013041     0.000000593114     
4.965000152588     0.268198013306     0.000000613771     
5.070000171661     0.273313999176     0.000000633839     
5.175000190735     0.278596013784     0.000000651761     
5.280000209808     0.283711999655     0.000000669683     
5.385000228882     0.289158999920     0.000000688026     
5.489999771118     0.294274985790     0.000000704097     
5.594999790192     0.299555987120     0.000000719495     
5.699999809265     0.304838001728     0.000000735566     
5.804999828339     0.310119003057     0.000000750038     
5.909999847412     0.315236002207     0.000000763248     
6.014999866486     0.320681989193     0.000000777342     
6.119999885559     0.325798988342     0.000000789501     
6.224999904633     0.331079989672     0.000000801028     
6.329999923706     0.336362004280     0.000000812471     
6.434999942780     0.341643005610     0.000000822694     
6.539999961853     0.346924006939     0.000000831782     
6.644999980927     0.352205991745     0.000000841753     
6.750000000000     0.357486993074     0.000000850503     
6.855000019073     0.362603992224     0.000000857487     
6.960000038147     0.368050009012     0.000000865102     
7.065000057220     0.373167008162     0.000000872590     
7.170000076294     0.378448009491     0.000000877723     
7.275000095367     0.383729010820     0.000000883192     
7.380000114441     0.389010995626     0.000000889250     
7.485000133514     0.394291996956     0.000000893710     
7.590000152588     0.399574011564     0.000000897286     
7.695000171661     0.404689997435     0.000000902040     
7.800000190735     0.409972012043     0.000000905322     
7.905000209808     0.415253013372     0.000000908182     
8.010000228882     0.420534014702     0.000000911590     
8.114999771118     0.425815999508     0.000000914198     
8.220000267029     0.431097000837     0.000000916597     
8.324999809265     0.436378985643     0.000000919710     
8.430000305176     0.441659986973     0.000000922108     
8.534999847412     0.446942001581     0.000000924001     
8.640000343323     0.452057987452     0.000000927156     
8.744999885559     0.457338988781     0.000000930270     
8.850000381470     0.462621003389     0.000000931826     
8.954999923706     0.467902004719     0.000000934645     
9.060000419617     0.473183989525     0.000000938389     
9.164999961853     0.478464990854     0.000000940829     
9.270000457764     0.483747005463     0.000000943900     
9.375000000000     0.489028006792     0.000000948318     
9.479999542236     0.494143992662     0.000000951768     
9.585000038147     0.499426007271     0.000000955218     
9.689999580383     0.504706978798     0.000000960140     
9.795000076294     0.509989023209     0.000000964473     
9.899999618530     0.515269994736     0.000000969059     
10.005000114441     0.520551979542     0.000000974949     
10.109999656677     0.525833010674     0.000000980292     
10.215000152588     0.531113982201     0.000000985761     
10.319999694824     0.536230981350     0.000000992408     
10.425000190735     0.541676998138     0.000000999182     
10.529999732971     0.546793997288     0.000001005071     
10.635000228882     0.552075028419     0.000001012644     
10.739999771118     0.557357013226     0.000001020638     
10.845000267029     0.562637984753     0.000001027537     
10.949999809265     0.567920029163     0.000001035531     
11.000000000000     0.577491998672     0.000001054411     
11.104999542236     0.582773983479     0.000001062104     
11.210000038147     0.588055014610     0.000001069798     
11.314999580383     0.593335986137     0.000001079415     
11.420000076294     0.598617970943     0.000001088647     
11.524999618530     0.603734016418     0.000001097110     
11.630000114441     0.609180986881     0.000001106343     
11.734999656677     0.614296972752     0.000001117114     
11.840000152588     0.619579017162     0.000001125961     
11.944999694824     0.624859988689     0.000001135194     
12.050000190735     0.630141019821     0.000001145580     
12.154999732971     0.635423004627     0.000001154812     
12.260000228882     0.640703976154     0.000001164045     
12.364999771118     0.645986020565     0.000001174046     
12.470000267029     0.651102006435     0.000001183279     
12.574999809265     0.656383991241     0.000001191742     
12.680000305176     0.661665022373     0.000001201743     
12.784999847412     0.666945993900     0.000001210591     
12.890000343323     0.672227978706     0.000001218669     
12.994999885559     0.677509009838     0.000001227902     
13.100000381470     0.682790994644     0.000001236365     
13.204999923706     0.688072025776     0.000001243674     
13.310000419617     0.693354010582     0.000001252906     
13.414999961853     0.698634982109     0.000001261369     
13.520000457764     0.703916013241     0.000001268293     
13.625000000000     0.709197998047     0.000001276372     
13.729999542236     0.714479029179     0.000001285219     
13.835000038147     0.719596028328     0.000001292143     
13.939999580383     0.724876999855     0.000001299068     
14.045000076294     0.730323970318     0.000001307531     
14.149999618530     0.735440015793     0.000001315224     
14.255000114441     0.740722000599     0.000001322149     
14.359999656677     0.746002972126     0.000001330227     
14.465000152588     0.751284003258     0.000001337536     
14.569999694824     0.756565988064     0.000001344460     
14.675000190735     0.761847019196     0.000001352538     
14.779999732971     0.767129004002     0.000001360232     
14.885000228882     0.772409975529     0.000001367156     
14.989999771118     0.777692019939     0.000001375619     
15.095000267029     0.782808005810     0.000001383698     
15.199999809265     0.788088977337     0.000001391006     
15.305000305176     0.793371021748     0.000001399469     
15.409999847412     0.798651993275     0.000001408317     
15.515000343323     0.803933978081     0.000001415626     
15.619999885559     0.809215009212     0.000001424089     
15.725000381470     0.814496994019     0.000001433706     
15.829999923706     0.819612979889     0.000001442169     
15.935000419617     0.825058996677     0.000001450632     
16.040000915527     0.830175995827     0.000001461018     
16.145000457764     0.835457026958     0.000001470251     
16.250000000000     0.840739011765     0.000001479098     
16.354999542236     0.846185028553     0.000001489485     
16.459999084473     0.851302027702     0.000001499102     
16.565000534058     0.856582999229     0.000001509488     
16.670000076294     0.861863970757     0.000001520644     
16.774999618530     0.867146015167     0.000001531030     
16.879999160767     0.872426986694     0.000001541417     
16.985000610352     0.877543985844     0.000001552957     
17.090000152588     0.882825016975     0.000001564498     
17.194999694824     0.888107001781     0.000001574884     
17.299999237061     0.893387973309     0.000001587194     
17.405000686646     0.898669004440     0.000001599888     
17.510000228882     0.903950989246     0.000001611044     
17.614999771118     0.909232020378     0.000001623739     
17.719999313354     0.914514005184     0.000001637202     
17.825000762939     0.919794976711     0.000001649897     
17.930000305176     0.925077021122     0.000001662976     
18.034999847412     0.930193006992     0.000001677209     
18.139999389648     0.935473978519     0.000001691058     
18.245000839233     0.940756022930     0.000001704906     
18.350000381470     0.946036994457     0.000001720293     
18.454999923706     0.951318979263     0.000001735296     
18.559999465942     0.956600010395     0.000001750299     
18.665000915527     0.961881995201     0.000001766840     
18.770000457764     0.967163026333     0.000001783381     
18.875000000000     0.972445011139     0.000001799153     
18.979999542236     0.977725982666     0.000001816848     
19.084999084473     0.982842028141     0.000001835313     
19.190000534058     0.988124012947     0.000001853008     
19.295000076294     0.993404984474     0.000001871858     
19.399999618530     0.998852014542     0.000001892631     
19.504999160767     1.004132986069     0.000001911865     
19.610000610352     1.009250044823     0.000001932253     
19.715000152588     1.014531016350     0.000001954564     
19.819999694824     1.019811987877     0.000001976106     
19.924999237061     1.024929046631     0.000001998802     
20.030000686646     1.030375003815     0.000002023422     
20.135000228882     1.035491943359     0.000002048042     
20.239999771118     1.040773034096     0.000002073046     
20.344999313354     1.046054959297     0.000002099974     
20.450000762939     1.051336050034     0.000002127671     
20.555000305176     1.056617021561     0.000002154983     
20.659999847412     1.061898946762     0.000002184603     
20.764999389648     1.067015051842     0.000002214993     
20.870000839233     1.072296977043     0.000002245383     
20.975000381470     1.077577948570     0.000002278081     
21.079999923706     1.083024978638     0.000002311933     
21.184999465942     1.088140964508     0.000002345015     
21.290000915527     1.093587994576     0.000002380021     
21.395000457764     1.098703980446     0.000002416181     
21.500000000000     1.103984951973     0.000002452341     
21.604999542236     1.109266996384     0.000002490425     
21.709999084473     1.114547967911     0.000002530432     
21.815000534058     1.119665026665     0.000002570054     
21.920000076294     1.125110983849     0.000002610445     
22.024999618530     1.130393028259     0.000002653145     
22.129999160767     1.135509014130     0.000002696229     
22.235000610352     1.140789985657     0.000002738544     
22.340000152588     1.146072030067     0.000002782782     
22.444999694824     1.151353001595     0.000002828175     
22.549999237061     1.156469941139     0.000002873952     
22.655000686646     1.161916017532     0.000002921268     
22.760000228882     1.167197942734     0.000002968583     
22.864999771118     1.172314047813     0.000003015130     
22.969999313354     1.177595019341     0.000003065138     
23.075000762939     1.182876944542     0.000003115147     
23.180000305176     1.188158035278     0.000003164001     
23.284999847412     1.193439960480     0.000003214779     
23.389999389648     1.198390960693     0.000003256709     
23.495000839233     1.195914983749     0.000003128226     
23.600000381470     1.190469026566     0.000002958966     
23.704999923706     1.185351967812     0.000002802016     
23.809999465942     1.180070996284     0.000002654299     
23.915000915527     1.174790024757     0.000002515429     
24.020000457764     1.169672966003     0.000002386176     
24.125000000000     1.164227008820     0.000002262694     
24.229999542236     1.159109950066     0.000002146135     
24.334999084473     1.153828978539     0.000002036886     
24.440000534058     1.148547053337     0.000001932253     
24.545000076294     1.143430948257     0.000001833390     
24.649999618530     1.137984991074     0.000001740682     
24.754999160767     1.132868051529     0.000001652205     
24.860000610352     1.127586960793     0.000001567190     
24.965000152588     1.122305035591     0.000001488331     
25.069999694824     1.117023944855     0.000001413703     
25.174999237061     1.111742019653     0.000001340998     
25.280000686646     1.106626033783     0.000001273679     
25.385000228882     1.101179957390     0.000001211360     
25.489999771118     1.095898032188     0.000001150196     
25.594999313354     1.090782046318     0.000001093263     
25.700000762939     1.085500001907     0.000001040177     
25.805000305176     1.080219030380     0.000000989400     
25.909999847412     1.074936985970     0.000000941314     
26.014999389648     1.069491028786     0.000000897461     
26.120000839233     1.064375042915     0.000000855146     
26.225000381470     1.059092998505     0.000000815139     
26.329999923706     1.053812026978     0.000000778594     
26.434999465942     1.048529982567     0.000000743588     
26.540000915527     1.043413996696     0.000000710506     
26.645000457764     1.038131952286     0.000000680885     
26.750000000000     1.032850980759     0.000000652034     
26.854999542236     1.027570009232     0.000000624337     
26.959999084473     1.022287964821     0.000000600102     
27.065000534058     1.017006993294     0.000000577022     
27.170000076294     1.011724948883     0.000000554325     
27.274999618530     1.006443977356     0.000000533553     
27.379999160767     1.001327037811     0.000000515088     
27.485000610352     0.995881021023     0.000000495854     
27.590000152588     0.990764975548     0.000000478543     
27.694999694824     0.985482990742     0.000000463925     
27.799999237061     0.980202019215     0.000000447769     
27.905000686646     0.974919974804     0.000000433920     
28.010000228882     0.969639003277     0.000000420841     
28.114999771118     0.964357018471     0.000000408531     
28.219999313354     0.959075987339     0.000000395837     
28.325000762939     0.953960001469     0.000000385066     
28.430000305176     0.948678016663     0.000000374679     
28.534999847412     0.943396985531     0.000000363908     
28.639999389648     0.938115000725     0.000000355061     
28.745000839233     0.932834029198     0.000000346213     
28.770000457764     0.922435998917     0.000000329541     
28.875000000000     0.917155027390     0.000000322683     
28.979999542236     0.911707997322     0.000000315405     
29.084999084473     0.906592011452     0.000000307201     
29.190000534058     0.901310026646     0.000000300848     
29.295000076294     0.896028995514     0.000000294748     
29.399999618530     0.890747010708     0.000000287175     
29.504999160767     0.885631024837     0.000000281538     
29.610000610352     0.880348980427     0.000000276405     
29.715000152588     0.874903023243     0.000000269884     
29.819999694824     0.869786977768     0.000000264078     
29.924999237061     0.864504992962     0.000000259535     
30.030000686646     0.859224021435     0.000000253855     
30.135000228882     0.853941977024     0.000000248260     
30.239999771118     0.848661005497     0.000000244053     
30.344999313354     0.843379020691     0.000000239299     
30.450000762939     0.838097989559     0.000000234040     
30.555000305176     0.832817018032     0.000000230169     
30.659999847412     0.827700018883     0.000000225499     
30.764999389648     0.822418987751     0.000000220577     
30.870000839233     0.817137002945     0.000000217127     
30.975000381470     0.811855971813     0.000000212878     
31.079999923706     0.806573987007     0.000000208040     
31.184999465942     0.801293015480     0.000000204759     
31.290000915527     0.796011984348     0.000000201267     
31.395000457764     0.790729999542     0.000000196302     
31.500000000000     0.785449028015     0.000000192642     
31.604999542236     0.780332028866     0.000000189781     
31.709999084473     0.775050997734     0.000000185154     
31.815000534058     0.769769012928     0.000000181367     
31.920000076294     0.764487981796     0.000000178548     
32.025001525879     0.759207010269     0.000000174804     
32.130001068115     0.753925025463     0.000000170639     
32.235000610352     0.748643994331     0.000000167862     
32.340000152588     0.743362009525     0.000000164286     
32.444999694824     0.738080978394     0.000000160290     
32.549999237061     0.732963979244     0.000000157681     
32.654998779297     0.727683007717     0.000000153979     
32.759998321533     0.722401976585     0.000000150151     
32.865001678467     0.717119991779     0.000000147669     
32.970001220703     0.711839020252     0.000000144387     
33.075000762939     0.706556975842     0.000000140096     
33.180000305176     0.701440989971     0.000000137614     
33.284999847412     0.695994019508     0.000000134837     
33.389999389648     0.690877974033     0.000000130546     
33.494998931885     0.685597002506     0.000000127643     
33.599998474121     0.680315017700     0.000000125329     
33.705001831055     0.674869000912     0.000000121290     
33.810001373291     0.669752001762     0.000000118093     
33.915000915527     0.664470970631     0.000000115863     
34.020000457764     0.659188985825     0.000000112624     
34.125000000000     0.653908014297     0.000000108921     
34.229999542236     0.648626029491     0.000000106397     
34.334999084473     0.643344998360     0.000000103242     
34.439998626709     0.638229012489     0.000000099792     
34.544998168945     0.632781982422     0.000000097394     
34.650001525879     0.627665996552     0.000000094323     
34.755001068115     0.622384011745     0.000000090789     
34.860000610352     0.617102980614     0.000000088475     
34.965000152588     0.611820995808     0.000000085278     
35.069999694824     0.606540024281     0.000000081659     
35.174999237061     0.601258993149     0.000000079135     
