
Cycle 1
Physical Cycle 1
Step 1

Time (s),          Potential (V),         Current (A)
0.104999996722     0.001818999997     -0.000000834810     
0.209999993443     0.007110000122     -0.000000777632     
0.314999997616     0.012400999665     -0.000000728077     
0.419999986887     0.017692999914     -0.000000682334     
0.449999988079     0.027613999322     -0.000000686417     
0.555000007153     0.032905001193     -0.000000645723     
0.660000026226     0.038196001202     -0.000000606565     
0.764999985695     0.043487001210     -0.000000571630     
0.870000004768     0.048778001219     -0.000000538615     
0.975000023842     0.054069999605     -0.000000505983     
1.080000042915     0.059195000678     -0.000000474503     
1.184999942780     0.064487002790     -0.000000445326     
1.289999961853     0.069778002799     -0.000000418069     
1.394999980927     0.075069002807     -0.000000392348     
1.500000000000     0.080360002816     -0.000000368162     
1.605000019073     0.085652001202     -0.000000344744     
1.710000038147     0.090943001211     -0.000000320558     
1.815000057220     0.096069000661     -0.000000298676     
1.835000038147     0.106816001236     -0.000000267747     
1.940000057220     0.112107999623     -0.000000249114     
2.045000076294     0.117233999074     -0.000000231572     
2.150000095367     0.122524999082     -0.000000214198     
2.255000114441     0.127816006541     -0.000000197327     
2.359999895096     0.133107006550     -0.000000183184     
2.464999914169     0.138398006558     -0.000000169419     
2.569999933243     0.143690004945     -0.000000154269     
2.674999952316     0.148815006018     -0.000000139749     
2.779999971390     0.154107004404     -0.000000127620     
2.884999990463     0.159398004413     -0.000000115366     
2.990000009537     0.164524003863     -0.000000103574     
3.095000028610     0.169815003872     -0.000000092536     
3.200000047684     0.175106003881     -0.000000081121     
3.305000066757     0.180397003889     -0.000000069161     
3.410000085831     0.185523003340     -0.000000059467     
3.515000104904     0.190980002284     -0.000000049982     
3.619999885559     0.196106001735     -0.000000039658     
3.724999904633     0.201397001743     -0.000000028831     
3.829999923706     0.206688001752     -0.000000019347     
3.934999942780     0.211979001760     -0.000000009107     
4.039999961853     0.217105001211     0.000000000588     
4.144999980927     0.222396001220     0.000000009442     
4.244999885559     0.228845000267     0.000000020881     
4.349999904633     0.233970999718     0.000000031772     
4.454999923706     0.239261999726     0.000000041995     
4.559999942780     0.244387999177     0.000000053046     
4.664999961853     0.249513998628     0.000000065657     
4.769999980927     0.254640012980     0.000000077822     
4.849999904633     0.262742012739     0.000000102147     
4.954999923706     0.268032997847     0.000000116415     
5.059999942780     0.273324012756     0.000000131481     
5.164999961853     0.278616011143     0.000000148772     
5.269999980927     0.283740997314     0.000000168160     
5.375000000000     0.289032995701     0.000000188136     
5.480000019073     0.294324010611     0.000000210462     
5.585000038147     0.299614995718     0.000000234887     
5.690000057220     0.304740995169     0.000000259438     
5.795000076294     0.310032010078     0.000000286674     
5.900000095367     0.315158009529     0.000000317267     
6.005000114441     0.320614993572     0.000000350505     
6.110000133514     0.325740009546     0.000000382903     
6.215000152588     0.331032007933     0.000000418113     
6.320000171661     0.336322993040     0.000000455673     
6.425000190735     0.341448992491     0.000000494576     
6.530000209808     0.346740007401     0.000000535368     
6.635000228882     0.352030992508     0.000000578552     
6.739999771118     0.357322007418     0.000000620560     
6.844999790192     0.362448006868     0.000000663660     
6.949999809265     0.367740005255     0.000000708270     
7.054999828339     0.372864991426     0.000000753720     
7.159999847412     0.378156989813     0.000000798373     
7.264999866486     0.383448004723     0.000000843822     
7.369999885559     0.388738989830     0.000000888097     
7.474999904633     0.393864989281     0.000000930735     
7.579999923706     0.399156004190     0.000000973331     
7.684999942780     0.404446989298     0.000001017312     
7.775000095367     0.411888003349     0.000001090666     
7.880000114441     0.417178988457     0.000001126752     
7.985000133514     0.422470986843     0.000001162455     
8.090000152588     0.427762001753     0.000001198926     
8.194999694824     0.433052986860     0.000001232325     
8.300000190735     0.438178986311     0.000001263038     
8.404999732971     0.443470001221     0.000001291062     
8.510000228882     0.448760986328     0.000001317936     
8.614999771118     0.454052001238     0.000001342121     
8.720000267029     0.459343999624     0.000001365539     
8.824999809265     0.464635014534     0.000001386654     
8.930000305176     0.469925999641     0.000001404697     
9.034999847412     0.475051999092     0.000001419670     
9.140000343323     0.480343014002     0.000001435410     
9.244999885559     0.485633999109     0.000001448078     
9.350000381470     0.490925997496     0.000001459212     
9.454999923706     0.496217012405     0.000001468425     
9.560000419617     0.501507997513     0.000001475719     
9.664999961853     0.506633996964     0.000001481478     
9.770000457764     0.511924982071     0.000001487236     
9.875000000000     0.517216026783     0.000001492611     
9.979999542236     0.522508025169     0.000001495682     
10.085000038147     0.527799010277     0.000001496066     
10.189999580383     0.533089995384     0.000001497218     
10.295000076294     0.538215994835     0.000001497218     
10.399999618530     0.543506979942     0.000001496834     
10.505000114441     0.548798024654     0.000001496450     
10.609999656677     0.554090023041     0.000001496066     
10.715000152588     0.559381008148     0.000001492611     
10.819999694824     0.564507007599     0.000001489924     
10.925000190735     0.569797992706     0.000001489924     
11.029999732971     0.575088977814     0.000001488388     
11.135000228882     0.580380022526     0.000001484933     
11.239999771118     0.585671007633     0.000001482246     
11.345000267029     0.590797007084     0.000001480326     
11.449999809265     0.596253991127     0.000001479174     
11.555000305176     0.601544976234     0.000001478023     
11.659999847412     0.606670975685     0.000001478407     
11.765000343323     0.611962020397     0.000001476871     
11.869999885559     0.617253005505     0.000001476103     
11.975000381470     0.622545003891     0.000001476871     
12.079999923706     0.627835988998     0.000001478407     
12.185000419617     0.633126974106     0.000001479174     
12.289999961853     0.638252973557     0.000001481478     
12.395000457764     0.643544018269     0.000001483397     
12.500000000000     0.648835003376     0.000001484933     
12.604999542236     0.654127001762     0.000001488004     
12.710000038147     0.659417986870     0.000001493763     
12.814999580383     0.664708971977     0.000001497218     
12.920000076294     0.670000016689     0.000001501825     
13.024999618530     0.675291001797     0.000001507199     
13.130000114441     0.680583000183     0.000001514493     
13.234999656677     0.685708999634     0.000001520252     
13.340000152588     0.690999984741     0.000001527546     
13.444999694824     0.696291029453     0.000001535224     
13.550000190735     0.701582014561     0.000001542134     
13.654999732971     0.706872999668     0.000001549812     
13.760000228882     0.711998999119     0.000001560562     
13.864999771118     0.717289984226     0.000001570159     
13.970000267029     0.722747027874     0.000001578989     
14.074999809265     0.727873027325     0.000001588203     
14.180000305176     0.733164012432     0.000001598952     
14.284999847412     0.738454997540     0.000001609317     
14.390000343323     0.743746995926     0.000001620834     
14.494999885559     0.749037981033     0.000001631967     
14.600000381470     0.754163980484     0.000001641181     
14.704999923706     0.759455025196     0.000001651546     
14.810000419617     0.764746010303     0.000001664983     
14.914999961853     0.770036995411     0.000001676884     
15.020000457764     0.775327980518     0.000001687633     
15.125000000000     0.780619978905     0.000001697999     
15.229999542236     0.785911023617     0.000001709900     
15.335000038147     0.791037023067     0.000001720265     
15.439999580383     0.796328008175     0.000001731782     
15.545000076294     0.801618993282     0.000001744451     
15.649999618530     0.806909978390     0.000001755200     
15.755000114441     0.812035977840     0.000001765565     
15.859999656677     0.817493021488     0.000001777466     
15.965000152588     0.822619020939     0.000001790519     
16.069999694824     0.827910006046     0.000001802420     
16.174999237061     0.833200991154     0.000001814705     
16.280000686646     0.838491976261     0.000001826606     
16.385000228882     0.843783974648     0.000001837355     
16.489999771118     0.849075019360     0.000001851175     
16.594999313354     0.854201018810     0.000001865764     
16.700000762939     0.859492003918     0.000001879200     
16.805000305176     0.864782989025     0.000001892253     
16.909999847412     0.870073974133     0.000001906457     
17.014999389648     0.875365972519     0.000001921430     
17.120000839233     0.880657017231     0.000001935634     
17.225000381470     0.885783016682     0.000001952142     
17.329999923706     0.891074001789     0.000001968266     
17.434999465942     0.896364986897     0.000001982854     
17.540000915527     0.901655972004     0.000001998978     
17.645000457764     0.906947016716     0.000002017021     
17.750000000000     0.912239015102     0.000002035448     
17.854999542236     0.917530000210     0.000002051956     
17.959999084473     0.922655999660     0.000002068848     
18.065000534058     0.927946984768     0.000002087275     
18.170000076294     0.933238029480     0.000002105702     
18.274999618530     0.938529014587     0.000002126049     
18.379999160767     0.943821012974     0.000002146396     
18.485000610352     0.949111998081     0.000002164823     
18.590000152588     0.954237997532     0.000002184786     
18.694999694824     0.959528982639     0.000002206285     
18.799999237061     0.964820027351     0.000002228935     
18.905000686646     0.970111012459     0.000002249666     
19.010000228882     0.975403010845     0.000002272700     
19.114999771118     0.980693995953     0.000002294198     
19.219999313354     0.985819995403     0.000002316081     
19.325000762939     0.991110980511     0.000002341034     
19.430000305176     0.996402025223     0.000002366372     
19.534999847412     1.001693010330     0.000002390942     
19.639999389648     1.006984949112     0.000002413976     
19.745000839233     1.012276053429     0.000002440849     
19.850000381470     1.017567038536     0.000002469258     
19.954999923706     1.022693037987     0.000002497283     
20.059999465942     1.027984023094     0.000002526459     
20.165000915527     1.033275008202     0.000002555636     
20.270000457764     1.038565993309     0.000002585196     
20.375000000000     1.043858051300     0.000002616676     
20.479999542236     1.048984050751     0.000002651995     
20.584999084473     1.054275035858     0.000002685778     
20.690000534058     1.059731006622     0.000002720330     
20.795000076294     1.064857006073     0.000002757952     
20.899999618530     1.070147991180     0.000002796726     
21.004999160767     1.075440049171     0.000002836652     
21.110000610352     1.080566048622     0.000002879649     
21.215000152588     1.085857033730     0.000002924182     
21.319999694824     1.091148018837     0.000002967562     
21.424999237061     1.096439003944     0.000003014399     
21.530000686646     1.101729989052     0.000003066609     
21.635000228882     1.106855988503     0.000003119972     
21.739999771118     1.112146973610     0.000003174102     
21.844999313354     1.117439031601     0.000003232071     
21.950000762939     1.122730016708     0.000003293495     
22.055000305176     1.128021001816     0.000003357607     
22.159999847412     1.133311986923     0.000003425174     
22.264999389648     1.138437986374     0.000003496196     
22.370000839233     1.143728971481     0.000003569137     
22.475000381470     1.149021029472     0.000003645533     
22.579999923706     1.154312014580     0.000003728456     
22.684999465942     1.159602999687     0.000003814834     
22.790000915527     1.164893984795     0.000003903899     
22.895000457764     1.170184969902     0.000003998339     
23.000000000000     1.175310969353     0.000004095850     
23.104999542236     1.180603027344     0.000004198352     
23.209999084473     1.185894012451     0.000004307380     
23.315000534058     1.191020011902     0.000004422935     
23.420000076294     1.196310997009     0.000004539257     
23.524999618530     1.196475982666     0.000004348074     
23.629999160767     1.191349983215     0.000003952655     
23.735000610352     1.186058998108     0.000003609447     
23.840000152588     1.180768013000     0.000003306164     
23.944999694824     1.175642013550     0.000003036665     
24.049999237061     1.170351028442     0.000002795574     
24.155000686646     1.165225028992     0.000002577134     
24.260000228882     1.159934043884     0.000002380960     
24.364999771118     1.154643058777     0.000002207053     
24.469999313354     1.149351000786     0.000002047349     
24.575000762939     1.144060015678     0.000001901083     
24.680000305176     1.138769030571     0.000001769020     
24.784999847412     1.133478045464     0.000001650779     
24.889999389648     1.128352046013     0.000001541750     
24.995000839233     1.123060941696     0.000001443088     
25.100000381470     1.117769002914     0.000001352871     
25.204999923706     1.112478017807     0.000001268796     
25.309999465942     1.107352018356     0.000001191632     
25.415000915527     1.102061033249     0.000001124065     
25.520000457764     1.096770048141     0.000001062257     
25.625000000000     1.091478943825     0.000001003520     
25.729999542236     1.086352944374     0.000000949006     
25.834999084473     1.081061959267     0.000000899866     
25.940000534058     1.075605034828     0.000000853798     
26.045000076294     1.070479035378     0.000000813488     
26.149999618530     1.065188050270     0.000000775866     
26.254999160767     1.059896945953     0.000000738627     
26.360000610352     1.054605007172     0.000000704076     
26.465000152588     1.049314022064     0.000000674132     
26.569999694824     1.044023036957     0.000000647259     
26.674999237061     1.038732051849     0.000000620002     
26.780000686646     1.033606052399     0.000000595816     
26.885000228882     1.028314948082     0.000000572014     
26.989999771118     1.023023962975     0.000000549364     
27.094999313354     1.017732024193     0.000000529785     
27.200000762939     1.012606024742     0.000000512509     
27.305000305176     1.007315039635     0.000000494466     
27.409999847412     1.002024054527     0.000000476806     
27.514999389648     0.996733009815     0.000000460682     
27.620000839233     0.991442024708     0.000000446094     
27.725000381470     0.986150026321     0.000000431890     
27.829999923706     0.980858981609     0.000000419989     
27.934999465942     0.975732982159     0.000000406552     
28.040000915527     0.970441997051     0.000000392732     
28.145000457764     0.965151011944     0.000000380831     
28.250000000000     0.960025012493     0.000000371617     
28.354999542236     0.954568028450     0.000000361636     
28.459999084473     0.949276983738     0.000000350119     
28.565000534058     0.944150984287     0.000000340137     
28.670000076294     0.938859999180     0.000000330924     
28.754999160767     0.931419014931     0.000000308119     
28.860000610352     0.926127970219     0.000000300817     
28.965000152588     0.921001970768     0.000000294018     
29.069999694824     0.915710985661     0.000000284659     
29.174999237061     0.910255014896     0.000000274881     
29.280000686646     0.905129015446     0.000000267957     
29.385000228882     0.899837017059     0.000000261284     
29.489999771118     0.894545972347     0.000000254024     
29.594999313354     0.889254987240     0.000000246554     
29.700000762939     0.884128987789     0.000000239545     
29.805000305176     0.878838002682     0.000000231782     
29.909999847412     0.873547017574     0.000000224857     
30.014999389648     0.868255019188     0.000000219653     
30.120000839233     0.862963974476     0.000000212980     
30.225000381470     0.857837975025     0.000000204923     
30.329999923706     0.852546989918     0.000000198754     
30.434999465942     0.847256004810     0.000000191536     
30.540000915527     0.841799020767     0.000000185660     
30.645000457764     0.836673974991     0.000000180582     
30.750000000000     0.831381976604     0.000000174581     
30.854999542236     0.826090991497     0.000000166523     
30.959999084473     0.820964992046     0.000000159347     
31.065000534058     0.815674006939     0.000000155025     
31.170000076294     0.810383021832     0.000000149779     
31.274999618530     0.805091977119     0.000000142435     
31.379999160767     0.799799978733     0.000000136559     
31.485000610352     0.794674992561     0.000000129929     
31.590000152588     0.789382994175     0.000000123382     
31.694999694824     0.784092009068     0.000000118262     
31.799999237061     0.778801023960     0.000000113897     
31.905000686646     0.773509979248     0.000000107015     
32.009998321533     0.768383979797     0.000000099545     
32.115001678467     0.763092994690     0.000000094509     
32.220001220703     0.757800996304     0.000000090018     
32.325000762939     0.752510011196     0.000000084856     
32.430000305176     0.747219026089     0.000000079023     
32.534999847412     0.742093026638     0.000000072644     
32.639999389648     0.736801981926     0.000000066475     
32.744998931885     0.731510996819     0.000000061313     
32.849998474121     0.726218998432     0.000000058292     
32.955001831055     0.720928013325     0.000000052500     
33.060001373291     0.715637028217     0.000000046247     
33.165000915527     0.710511028767     0.000000041421     
33.270000457764     0.705054998398     0.000000036679     
33.375000000000     0.699928998947     0.000000031181     
33.479999542236     0.694637000561     0.000000027278     
33.584999084473     0.689346015453     0.000000023291     
33.689998626709     0.684054970741     0.000000017122     
33.794998168945     0.678763985634     0.000000011499     
33.889999389648     0.671984016895     0.000000006508     
33.994998931885     0.666692972183     0.000000002201     
34.099998474121     0.661566972733     -0.000000000500     
34.205001831055     0.656275987625     -0.000000004093     
34.310001373291     0.650985002518     -0.000000007366     
34.415000915527     0.645859003067     -0.000000010219     
34.520000457764     0.640402019024     -0.000000012066     
34.625000000000     0.635276973248     -0.000000014656     
34.729999542236     0.629984974861     -0.000000016498     
34.834999084473     0.624693989754     -0.000000017681     
34.939998626709     0.619403004646     -0.000000019218     
35.044998168945     0.614112019539     -0.000000021347     
35.150001525879     0.608986020088     -0.000000022117     
35.255001068115     0.603694975376     -0.000000023422     
