
Cycle 1
Physical Cycle 1
Step 1

Time (s),          Potential (V),         Current (A)
0.104999996722     0.001818999997     -0.000000240151     
0.209999993443     0.007110000122     -0.000000221091     
0.314999997616     0.012400999665     -0.000000205844     
0.419999986887     0.017692999914     -0.000000186784     
0.449999988079     0.027613999322     -0.000000243010     
0.555000007153     0.032905001193     -0.000000227270     
0.660000026226     0.038196001202     -0.000000213450     
0.764999985695     0.043487001210     -0.000000200013     
0.795000016689     0.053573999554     -0.000000183940     
0.899999976158     0.058864999563     -0.000000171769     
1.004999995232     0.064156003296     -0.000000160732     
1.110000014305     0.069447003305     -0.000000150618     
1.215000033379     0.074573002756     -0.000000140798     
1.320000052452     0.079864002764     -0.000000131272     
1.424999952316     0.085156001151     -0.000000122165     
1.529999971390     0.090447001159     -0.000000113310     
1.634999990463     0.095738001168     -0.000000105630     
1.740000009537     0.101029001176     -0.000000098538     
1.845000028610     0.106320001185     -0.000000091445     
1.950000047684     0.111446000636     -0.000000084059     
2.055000066757     0.116737000644     -0.000000077554     
2.160000085831     0.122028999031     -0.000000071679     
2.265000104904     0.127320006490     -0.000000065971     
2.369999885559     0.132446005940     -0.000000060894     
2.474999904633     0.137737005949     -0.000000055774     
2.579999923706     0.143028005958     -0.000000050150     
2.684999942780     0.148319005966     -0.000000045408     
2.789999961853     0.153611004353     -0.000000041421     
2.894999980927     0.158902004361     -0.000000037434     
3.000000000000     0.164193004370     -0.000000033196     
3.105000019073     0.169319003820     -0.000000028999     
3.210000038147     0.174610003829     -0.000000025138     
3.279999971390     0.182712003589     -0.000000020702     
3.384999990463     0.188004001975     -0.000000017009     
3.490000009537     0.193295001984     -0.000000013508     
3.595000028610     0.198421001434     -0.000000010326     
3.700000047684     0.203712001443     -0.000000006355     
3.805000066757     0.209003001451     -0.000000002369     
3.910000085831     0.214294001460     0.000000001312     
4.014999866486     0.219420000911     0.000000005237     
4.119999885559     0.224711000919     0.000000009765     
4.224999904633     0.229837000370     0.000000014290     
4.329999923706     0.235128000379     0.000000019367     
4.434999942780     0.240419998765     0.000000025009     
4.539999961853     0.245544999838     0.000000030856     
4.644999980927     0.250836998224     0.000000037078     
4.750000000000     0.256128013134     0.000000044478     
4.855000019073     0.261254012585     0.000000052760     
4.960000038147     0.266544997692     0.000000061526     
5.065000057220     0.271670997143     0.000000071215     
5.170000076294     0.276796996593     0.000000082648     
5.244999885559     0.285230010748     0.000000105252     
5.349999904633     0.290354996920     0.000000120360     
5.454999923706     0.295646995306     0.000000136601     
5.559999942780     0.300938010216     0.000000154815     
5.664999961853     0.306064009666     0.000000175630     
5.769999980927     0.311354994774     0.000000198544     
5.875000000000     0.316646009684     0.000000223682     
5.980000019073     0.321936994791     0.000000251044     
6.085000038147     0.327228993177     0.000000279707     
6.190000057220     0.332354992628     0.000000310553     
6.295000076294     0.337646007538     0.000000344000     
6.400000095367     0.342936992645     0.000000379798     
6.505000114441     0.348062992096     0.000000416309     
6.610000133514     0.353354007006     0.000000454079     
6.715000152588     0.358644992113     0.000000493066     
6.820000171661     0.363936007023     0.000000533437     
6.925000190735     0.369062006474     0.000000574145     
7.030000209808     0.374354004860     0.000000615818     
7.135000228882     0.379644989967     0.000000656945     
7.239999771118     0.384770989418     0.000000698030     
7.344999790192     0.390062004328     0.000000738360     
7.449999809265     0.395352989435     0.000000778690     
7.554999828339     0.400478988886     0.000000817425     
7.659999847412     0.405770003796     0.000000855363     
7.764999866486     0.411060988903     0.000000891161     
7.869999885559     0.416186988354     0.000000924818     
7.974999904633     0.421478003263     0.000000957426     
8.079999923706     0.426770001650     0.000000989488     
8.185000419617     0.431896001101     0.000001018739     
8.225000381470     0.441982001066     0.000001083755     
8.329999923706     0.447438001633     0.000001105638     
8.435000419617     0.452564001083     0.000001125985     
8.539999961853     0.457855999470     0.000001144796     
8.645000457764     0.463147014380     0.000001161304     
8.750000000000     0.468437999487     0.000001175892     
8.854999542236     0.473729014397     0.000001188177     
8.960000038147     0.479019999504     0.000001198926     
9.064999580383     0.484145998955     0.000001208907     
9.170000076294     0.489437013865     0.000001216585     
9.274999618530     0.494729012251     0.000001222728     
9.380000114441     0.500020027161     0.000001227335     
9.484999656677     0.505311012268     0.000001230022     
9.590000152588     0.510437011719     0.000001233093     
9.694999694824     0.515727996826     0.000001235013     
9.800000190735     0.521018981934     0.000001235781     
9.904999732971     0.526310980320     0.000001234629     
10.010000228882     0.531602025032     0.000001233861     
10.114999771118     0.536893010139     0.000001232325     
10.220000267029     0.542183995247     0.000001230406     
10.324999809265     0.547309994698     0.000001227719     
10.430000305176     0.552600979805     0.000001224647     
10.534999847412     0.557892978191     0.000001220808     
10.640000343323     0.563184022903     0.000001216585     
10.744999885559     0.568475008011     0.000001213130     
10.850000381470     0.573765993118     0.000001209675     
10.954999923706     0.579056978226     0.000001205068     
11.060000419617     0.584348976612     0.000001199694     
11.164999961853     0.589474976063     0.000001195471     
11.270000457764     0.594766020775     0.000001191248     
11.375000000000     0.600057005882     0.000001187025     
11.479999542236     0.605347990990     0.000001183570     
11.585000038147     0.610638976097     0.000001180115     
11.689999580383     0.615930974483     0.000001176276     
11.795000076294     0.621056020260     0.000001173205     
11.899999618530     0.626348018646     0.000001169749     
12.005000114441     0.631639003754     0.000001165526     
12.109999656677     0.636929988861     0.000001162071     
12.215000152588     0.642220973969     0.000001159384     
12.319999694824     0.647512972355     0.000001156313     
12.425000190735     0.652638018131     0.000001153242     
12.529999732971     0.657930016518     0.000001151706     
12.635000228882     0.663221001625     0.000001149786     
12.739999771118     0.668511986732     0.000001147867     
12.845000267029     0.673802971840     0.000001146331     
12.949999809265     0.679094970226     0.000001144796     
13.055000305176     0.684386014938     0.000001144412     
13.159999847412     0.689677000046     0.000001143260     
13.265000343323     0.694967985153     0.000001143260     
13.369999885559     0.700258970261     0.000001142876     
13.475000381470     0.705551028252     0.000001142108     
13.579999923706     0.710676014423     0.000001142492     
13.685000419617     0.715968012810     0.000001144028     
13.789999961853     0.721258997917     0.000001144412     
13.895000457764     0.726549983025     0.000001145180     
14.000000000000     0.731841027737     0.000001146331     
14.104999542236     0.737133026123     0.000001147483     
14.210000038147     0.742258012295     0.000001149019     
14.314999580383     0.747550010681     0.000001151322     
14.420000076294     0.752840995789     0.000001152474     
14.524999618530     0.757966995239     0.000001153626     
14.630000114441     0.763257980347     0.000001155545     
14.734999656677     0.768549025059     0.000001158616     
14.840000152588     0.773840010166     0.000001160920     
14.944999694824     0.779132008553     0.000001163607     
15.050000190735     0.784422993660     0.000001165910     
15.154999732971     0.789713978767     0.000001168214     
15.260000228882     0.795005023479     0.000001170901     
15.364999771118     0.800296008587     0.000001174740     
15.470000267029     0.805422008038     0.000001178579     
15.574999809265     0.810714006424     0.000001181650     
15.680000305176     0.816004991531     0.000001185105     
15.784999847412     0.821295976639     0.000001188944     
15.890000343323     0.826587021351     0.000001193935     
15.994999885559     0.831878006458     0.000001198926     
16.100000381470     0.837004005909     0.000001203917     
16.204999923706     0.842294991016     0.000001208907     
16.309999465942     0.847586989403     0.000001214282     
16.415000915527     0.852877974510     0.000001220808     
16.520000457764     0.858169019222     0.000001227719     
16.625000000000     0.863460004330     0.000001234629     
16.729999542236     0.868752002716     0.000001241539     
16.834999084473     0.873876988888     0.000001248449     
16.940000534058     0.879168987274     0.000001255743     
17.045000076294     0.884459972382     0.000001264189     
17.149999618530     0.889751017094     0.000001274171     
17.254999160767     0.895042002201     0.000001283000     
17.360000610352     0.900332987309     0.000001291062     
17.465000152588     0.905458986759     0.000001300276     
17.569999694824     0.910750985146     0.000001310258     
17.674999237061     0.916041970253     0.000001320239     
17.780000686646     0.921333014965     0.000001330220     
17.885000228882     0.926624000072     0.000001340202     
17.989999771118     0.931749999523     0.000001350567     
18.094999313354     0.937040984631     0.000001361316     
18.200000762939     0.942332029343     0.000001372834     
18.305000305176     0.947624027729     0.000001385118     
18.409999847412     0.952915012836     0.000001396635     
18.514999389648     0.958205997944     0.000001408920     
18.620000839233     0.963496983051     0.000001420437     
18.725000381470     0.968622982502     0.000001433106     
18.829999923706     0.973914027214     0.000001446543     
18.934999465942     0.979206025600     0.000001460747     
19.040000915527     0.984497010708     0.000001473800     
19.145000457764     0.989787995815     0.000001486469     
19.250000000000     0.995078980923     0.000001500289     
19.354999542236     1.000370979309     0.000001516029     
19.459999084473     1.005496025085     0.000001530617     
19.565000534058     1.010787963867     0.000001545973     
19.670000076294     1.016078948975     0.000001561713     
19.774999618530     1.021370053291     0.000001578221     
19.879999160767     1.026661038399     0.000001593961     
19.985000610352     1.031787037849     0.000001612388     
20.090000152588     1.037078022957     0.000001630816     
20.194999694824     1.042369961739     0.000001648859     
20.299999237061     1.047660946846     0.000001668822     
20.405000686646     1.052952051163     0.000001690321     
20.510000228882     1.058243036270     0.000001711819     
20.614999771118     1.063534021378     0.000001735237     
20.719999313354     1.068825960159     0.000001758271     
20.825000762939     1.073951005936     0.000001780154     
20.930000305176     1.079242944717     0.000001805107     
21.034999847412     1.084534049034     0.000001831980     
21.139999389648     1.089660048485     0.000001860773     
21.245000839233     1.094951033592     0.000001889566     
21.350000381470     1.100242018700     0.000001920662     
21.454999923706     1.105533003807     0.000001954061     
21.559999465942     1.110824942589     0.000001986309     
21.665000915527     1.116116046906     0.000002022012     
21.770000457764     1.121407032013     0.000002060786     
21.875000000000     1.126698017120     0.000002101480     
21.979999542236     1.131824016571     0.000002142173     
22.084999084473     1.137115001678     0.000002185170     
22.190000534058     1.142406940460     0.000002232006     
22.295000076294     1.147698044777     0.000002281146     
22.399999618530     1.152989029884     0.000002332589     
22.504999160767     1.158280014992     0.000002385951     
22.610000610352     1.163406014442     0.000002441617     
22.715000152588     1.168696999550     0.000002499202     
22.819999694824     1.173989057541     0.000002561010     
22.924999237061     1.179113984108     0.000002625506     
23.030000686646     1.184406042099     0.000002692689     
23.135000228882     1.189697027206     0.000002763327     
23.239999771118     1.194988012314     0.000002835884     
23.344999313354     1.197633981705     0.000002810930     
23.450000762939     1.193004012108     0.000002561010     
23.555000305176     1.187713027000     0.000002334124     
23.659999847412     1.182420969009     0.000002131040     
23.764999389648     1.177296042442     0.000001950606     
23.870000839233     1.172003984451     0.000001788983     
23.975000381470     1.166712999344     0.000001645020     
24.079999923706     1.161422014236     0.000001514493     
24.184999465942     1.156131029129     0.000001396635     
24.290000915527     1.151005029678     0.000001289527     
24.395000457764     1.145714044571     0.000001192400     
24.500000000000     1.140421986580     0.000001104870     
24.604999542236     1.135131001472     0.000001026170     
24.709999084473     1.129840016365     0.000000954764     
24.815000534058     1.124549031258     0.000000887965     
24.920000076294     1.119423031807     0.000000827309     
25.024999618530     1.114132046700     0.000000772411     
25.129999160767     1.108839988708     0.000000722887     
25.235000610352     1.103549003601     0.000000677587     
25.340000152588     1.098258018494     0.000000636510     
25.444999694824     1.093132019043     0.000000598119     
25.549999237061     1.087841033936     0.000000562800     
25.655000686646     1.082550048828     0.000000530936     
25.760000228882     1.077258944511     0.000000502144     
25.864999771118     1.071967005730     0.000000475271     
25.969999313354     1.066676020622     0.000000450317     
26.075000762939     1.061550021172     0.000000426899     
26.180000305176     1.056259036064     0.000000405401     
26.284999847412     1.050968050957     0.000000386205     
26.389999389648     1.045676946640     0.000000369314     
26.495000839233     1.040385007858     0.000000352422     
26.600000381470     1.035259008408     0.000000336682     
26.704999923706     1.029968023300     0.000000321326     
26.745000839233     1.020213007927     0.000000289192     
26.850000381470     1.014920949936     0.000000277945     
26.954999923706     1.009629964828     0.000000267369     
27.059999465942     1.004503965378     0.000000256332     
27.165000915527     0.999212980270     0.000000245882     
27.270000457764     0.993921995163     0.000000237027     
27.375000000000     0.988631010056     0.000000229641     
27.479999542236     0.983339011669     0.000000221584     
27.584999084473     0.978214025497     0.000000213358     
27.690000534058     0.972756981850     0.000000205804     
27.795000076294     0.967630982399     0.000000198334     
27.899999618530     0.962339997292     0.000000191871     
28.004999160767     0.957049012184     0.000000186751     
28.110000610352     0.951923012733     0.000000180792     
28.215000152588     0.946466028690     0.000000174203     
28.319999694824     0.941340029240     0.000000168076     
28.424999237061     0.936048984528     0.000000163250     
28.530000686646     0.930757999420     0.000000158214     
28.635000228882     0.925467014313     0.000000153472     
28.739999771118     0.920176029205     0.000000148856     
28.844999313354     0.915050029755     0.000000143106     
28.950000762939     0.909757971764     0.000000138112     
29.055000305176     0.904466986656     0.000000134461     
29.159999847412     0.899176001549     0.000000131020     
29.264999389648     0.893885016441     0.000000126319     
29.370000839233     0.888593971729     0.000000121409     
29.475000381470     0.883467972279     0.000000117087     
29.579999923706     0.878176987171     0.000000112932     
29.684999465942     0.872884988785     0.000000109491     
29.790000915527     0.867594003677     0.000000106134     
29.895000457764     0.862303018570     0.000000101853     
30.000000000000     0.857011973858     0.000000097027     
30.104999542236     0.851885974407     0.000000093082     
30.209999084473     0.846428990364     0.000000089976     
30.315000534058     0.841302990913     0.000000086493     
30.420000076294     0.836012005806     0.000000082800     
30.524999618530     0.830721020699     0.000000078268     
30.629999160767     0.825429975986     0.000000073861     
30.735000610352     0.820303976536     0.000000070168     
30.840000152588     0.815012991428     0.000000067440     
30.944999694824     0.809720993042     0.000000064041     
31.049999237061     0.804430007935     0.000000059005     
31.155000686646     0.799139022827     0.000000054850     
31.260000228882     0.794013023376     0.000000051451     
31.364999771118     0.788556993008     0.000000048304     
31.469999313354     0.783430993557     0.000000044359     
31.575000762939     0.778138995171     0.000000040750     
31.680000305176     0.772848010063     0.000000036301     
31.784999847412     0.767557024956     0.000000032104     
31.889999389648     0.762431025505     0.000000028915     
31.995000839233     0.757139980793     0.000000026355     
32.099998474121     0.750690996647     0.000000020042     
32.205001831055     0.745564997196     0.000000016613     
32.310001373291     0.740274012089     0.000000013126     
32.415000915527     0.734983026981     0.000000009994     
32.520000457764     0.729691982269     0.000000006363     
32.625000000000     0.724565982819     0.000000003380     
32.729999542236     0.719274997711     0.000000000244     
32.834999084473     0.713982999325     -0.000000003059     
32.939998626709     0.708858013153     -0.000000006309     
33.044998168945     0.703566014767     -0.000000009125     
33.150001525879     0.698275029659     -0.000000012195     
33.255001068115     0.692983984947     -0.000000015270     
33.360000610352     0.687857985497     -0.000000017948     
33.465000152588     0.682567000389     -0.000000020599     
33.569999694824     0.677276015282     -0.000000024017     
33.674999237061     0.671984016895     -0.000000026264     
33.779998779297     0.666692972183     -0.000000028652     
33.884998321533     0.661566972733     -0.000000030483     
33.990001678467     0.656275987625     -0.000000032615     
34.095001220703     0.650985002518     -0.000000033607     
34.200000762939     0.645694017410     -0.000000034282     
34.305000305176     0.640402019024     -0.000000034625     
34.409999847412     0.635110974312     -0.000000034007     
34.514999389648     0.629819989204     -0.000000032672     
34.619998931885     0.624693989754     -0.000000031204     
34.724998474121     0.619403004646     -0.000000028888     
34.830001831055     0.614112019539     -0.000000025814     
34.935001373291     0.608654975891     -0.000000022270     
35.040000915527     0.603528976440     -0.000000019065     
35.145000457764     0.598073005676     -0.000000015606     
