
Cycle 1
Physical Cycle 1
Step 1

Time (s),          Potential (V),         Current (A)
0.104999996722     0.002318999963     -0.000000431808     
0.209999993443     0.007453999948     -0.000000397416     
0.314999997616     0.012755000032     -0.000000366846     
0.419999986887     0.018055999652     -0.000000336275     
0.449999988079     0.028161000460     -0.000000277922     
0.555000007153     0.033296998590     -0.000000252867     
0.660000026226     0.038598001003     -0.000000230895     
0.764999985695     0.043898999691     -0.000000209309     
0.795000016689     0.054003998637     -0.000000171413     
0.899999976158     0.059305001050     -0.000000153810     
1.004999995232     0.064606003463     -0.000000139147     
1.110000014305     0.069741003215     -0.000000124947     
1.215000033379     0.075042001903     -0.000000110831     
1.320000052452     0.080343000591     -0.000000098857     
1.424999952316     0.085643999279     -0.000000088185     
1.529999971390     0.090778999031     -0.000000077178     
1.634999990463     0.096079997718     -0.000000067599     
1.740000009537     0.101380996406     -0.000000060247     
1.845000028610     0.106682002544     -0.000000052390     
1.950000047684     0.111983001232     -0.000000044324     
2.055000066757     0.117118000984     -0.000000038190     
2.160000085831     0.122418999672     -0.000000032644     
2.265000104904     0.127719998360     -0.000000026636     
2.369999885559     0.132855996490     -0.000000021763     
2.474999904633     0.138156995177     -0.000000018402     
2.579999923706     0.143457993865     -0.000000013570     
2.690000057220     0.149587005377     -0.000000009109     
2.795000076294     0.154722005129     -0.000000005032     
2.900000095367     0.160023003817     -0.000000002628     
3.005000114441     0.165158003569     -0.000000000038     
3.109999895096     0.170459002256     0.000000003371     
3.214999914169     0.175760000944     0.000000005605     
3.319999933243     0.180895999074     0.000000007357     
3.424999952316     0.186196997762     0.000000010265     
3.529999971390     0.191497996449     0.000000012620     
3.634999990463     0.196798995137     0.000000013598     
3.740000009537     0.201933994889     0.000000015225     
3.845000028610     0.207234993577     0.000000017724     
3.950000047684     0.212536007166     0.000000018854     
4.054999828339     0.217837005854     0.000000019981     
4.159999847412     0.223138004541     0.000000022115     
4.264999866486     0.228273004293     0.000000023564     
4.369999885559     0.233574002981     0.000000023829     
4.474999904633     0.238875001669     0.000000025259     
4.579999923706     0.244010001421     0.000000027288     
4.684999942780     0.249311000109     0.000000027951     
4.789999961853     0.254611998796     0.000000028535     
4.894999980927     0.259748011827     0.000000030371     
5.000000000000     0.265213996172     0.000000031364     
5.105000019073     0.270350009203     0.000000031565     
5.210000038147     0.275651007891     0.000000033128     
5.315000057220     0.280952006578     0.000000034827     
5.420000076294     0.286087006330     0.000000035126     
5.525000095367     0.291388005018     0.000000035809     
5.630000114441     0.296689003706     0.000000037640     
5.735000133514     0.301990002394     0.000000038365     
5.840000152588     0.307125002146     0.000000038846     
5.945000171661     0.312426000834     0.000000040640     
6.050000190735     0.317726999521     0.000000042050     
6.155000209808     0.323027998209     0.000000042259     
6.260000228882     0.328328996897     0.000000043226     
6.364999771118     0.333463996649     0.000000045334     
6.469999790192     0.338764995337     0.000000046180     
6.574999809265     0.344065994024     0.000000046961     
6.679999828339     0.349202007055     0.000000048979     
6.784999847412     0.354503005743     0.000000050427     
6.889999866486     0.359804004431     0.000000050818     
6.994999885559     0.364939004183     0.000000052498     
7.099999904633     0.370240002871     0.000000054807     
7.204999923706     0.375541001558     0.000000055945     
7.309999942780     0.380842000246     0.000000057037     
7.414999961853     0.385976999998     0.000000059411     
7.519999980927     0.391277998686     0.000000061075     
7.625000000000     0.396578997374     0.000000062069     
7.730000019073     0.401713997126     0.000000064462     
7.835000038147     0.407014995813     0.000000066976     
7.940000057220     0.412315994501     0.000000068212     
8.045000076294     0.417616993189     0.000000069953     
8.149999618530     0.422753006220     0.000000072766     
8.255000114441     0.428054004908     0.000000074651     
8.359999656677     0.433355003595     0.000000076312     
8.465000152588     0.438654989004     0.000000079346     
8.569999694824     0.443955987692     0.000000082084     
8.675000190735     0.449092000723     0.000000083570     
8.720000267029     0.458864986897     0.000000089656     
8.824999809265     0.464165985584     0.000000092471     
8.930000305176     0.469467014074     0.000000094403     
9.034999847412     0.474602997303     0.000000096672     
9.140000343323     0.479903995991     0.000000100159     
9.244999885559     0.485204994678     0.000000102722     
9.350000381470     0.490339994431     0.000000104865     
9.454999923706     0.495640993118     0.000000108814     
9.560000419617     0.500941991806     0.000000112343     
9.664999961853     0.506242990494     0.000000114570     
9.770000457764     0.511543989182     0.000000117301     
9.875000000000     0.516844987869     0.000000121376     
9.979999542236     0.521979987621     0.000000124569     
10.085000038147     0.527280986309     0.000000127594     
10.189999580383     0.532581984997     0.000000131753     
10.295000076294     0.537882983685     0.000000135576     
10.399999618530     0.543017983437     0.000000138055     
10.505000114441     0.548318982124     0.000000141794     
10.609999656677     0.553619980812     0.000000146458     
10.715000152588     0.558920979500     0.000000150029     
10.819999694824     0.564056992531     0.000000153600     
10.925000190735     0.569357991219     0.000000158263     
11.029999732971     0.574658989906     0.000000162213     
11.135000228882     0.579959988594     0.000000165448     
11.239999771118     0.585260987282     0.000000170153     
11.345000267029     0.590395987034     0.000000175363     
11.449999809265     0.595696985722     0.000000179144     
11.555000305176     0.600997984409     0.000000183219     
11.659999847412     0.606132984161     0.000000188513     
11.765000343323     0.611433982849     0.000000192966     
11.869999885559     0.616734981537     0.000000196873     
11.975000381470     0.622035980225     0.000000202503     
12.079999923706     0.627336978912     0.000000207965     
12.185000419617     0.632637977600     0.000000212040     
12.289999961853     0.637772977352     0.000000216662     
12.395000457764     0.643073976040     0.000000222585     
12.500000000000     0.648374974728     0.000000227417     
12.604999542236     0.653675973415     0.000000232122     
12.710000038147     0.658811986446     0.000000238172     
12.814999580383     0.664111971855     0.000000243592     
12.920000076294     0.669412970543     0.000000247709     
13.024999618530     0.674714028835     0.000000252961     
13.130000114441     0.679849982262     0.000000259389     
13.234999656677     0.685150980949     0.000000264472     
13.340000152588     0.690451979637     0.000000269640     
13.444999694824     0.695752978325     0.000000275858     
13.550000190735     0.700887978077     0.000000281362     
13.654999732971     0.706188976765     0.000000286025     
13.760000228882     0.711489975452     0.000000292075     
13.864999771118     0.716790974140     0.000000298755     
13.970000267029     0.722091972828     0.000000303965     
14.074999809265     0.727226972580     0.000000309468     
14.180000305176     0.732527971268     0.000000316233     
14.284999847412     0.737995028496     0.000000322114     
14.390000343323     0.742964029312     0.000000327324     
14.494999885559     0.748431026936     0.000000334340     
14.600000381470     0.753732025623     0.000000341230     
14.704999923706     0.758867025375     0.000000346734     
14.810000419617     0.764168024063     0.000000352574     
14.914999961853     0.769303977489     0.000000359842     
15.020000457764     0.774604976177     0.000000366186     
15.125000000000     0.779905974865     0.000000372404     
15.229999542236     0.785206973553     0.000000379840     
15.335000038147     0.790507972240     0.000000387025     
15.439999580383     0.795642971992     0.000000392822     
15.545000076294     0.800943970680     0.000000399545     
15.649999618530     0.806245028973     0.000000407443     
15.755000114441     0.811546027660     0.000000414123     
15.859999656677     0.816681027412     0.000000421013     
15.965000152588     0.821982026100     0.000000428954     
16.069999694824     0.827283024788     0.000000436222     
16.174999237061     0.832584023476     0.000000442692     
16.280000686646     0.837885022163     0.000000450464     
16.385000228882     0.843186020851     0.000000458993     
16.489999771118     0.848321020603     0.000000466051     
16.594999313354     0.853622019291     0.000000473572     
16.700000762939     0.858757972717     0.000000482226     
16.805000305176     0.864058971405     0.000000490083     
16.909999847412     0.869360029697     0.000000497309     
17.014999389648     0.874495029449     0.000000506258     
17.120000839233     0.879961013794     0.000000515417     
17.225000381470     0.885097026825     0.000000523273     
17.329999923706     0.890398025513     0.000000531508     
17.434999465942     0.895699024200     0.000000541171     
17.540000915527     0.900834023952     0.000000549951     
17.645000457764     0.906301021576     0.000000558522     
17.750000000000     0.911436021328     0.000000568605     
17.854999542236     0.916737020016     0.000000578772     
17.959999084473     0.922038018703     0.000000587427     
18.065000534058     0.927339017391     0.000000597006     
18.170000076294     0.932474017143     0.000000607888     
18.274999618530     0.937775015831     0.000000618097     
18.379999160767     0.942911028862     0.000000628222     
18.485000610352     0.948212027550     0.000000639902     
18.590000152588     0.953678011894     0.000000651119     
18.694999694824     0.958813011646     0.000000661328     
18.799999237061     0.963949024677     0.000000673050     
18.905000686646     0.969250023365     0.000000685864     
19.010000228882     0.974551022053     0.000000697712     
19.114999771118     0.979852020741     0.000000709769     
19.219999313354     0.985153019428     0.000000723466     
19.325000762939     0.990288019180     0.000000736448     
19.430000305176     0.995589017868     0.000000749136     
19.534999847412     1.000890016556     0.000000763504     
19.639999389648     1.006024956703     0.000000779007     
19.745000839233     1.011325955391     0.000000793207     
19.850000381470     1.016626954079     0.000000807954     
19.954999923706     1.021762967110     0.000000824423     
20.059999465942     1.027063012123     0.000000840724     
20.165000915527     1.032364010811     0.000000856815     
20.270000457764     1.037665009499     0.000000875091     
20.375000000000     1.042801022530     0.000000893787     
20.479999542236     1.048102021217     0.000000911516     
20.584999084473     1.053403019905     0.000000930548     
20.690000534058     1.058704018593     0.000000951429     
20.795000076294     1.063838958740     0.000000971973     
20.899999618530     1.069139957428     0.000000993106     
21.004999160767     1.074440956116     0.000001016465     
21.055000305176     1.084048986435     0.000001062735     
21.159999847412     1.089349985123     0.000001087020     
21.264999389648     1.094485044479     0.000001112461     
21.370000839233     1.099786043167     0.000001139829     
21.475000381470     1.104922056198     0.000001168354     
21.579999923706     1.110221982002     0.000001197264     
21.684999465942     1.115522980690     0.000001227330     
21.790000915527     1.120823979378     0.000001260095     
21.895000457764     1.126124978065     0.000001292474     
22.000000000000     1.131425976753     0.000001326781     
22.104999542236     1.136726975441     0.000001363015     
22.209999084473     1.142027974129     0.000001400791     
22.315000534058     1.147163987160     0.000001438181     
22.420000076294     1.152464985847     0.000001478655     
22.524999618530     1.157765984535     0.000001521442     
22.629999160767     1.163066983223     0.000001564229     
22.735000610352     1.168202042580     0.000001608943     
22.840000152588     1.173503041267     0.000001656741     
22.944999694824     1.178804039955     0.000001704925     
23.049999237061     1.183938980103     0.000001754265     
23.155000686646     1.189239978790     0.000001806303     
23.260000228882     1.194540977478     0.000001861040     
23.364999771118     1.198516964912     0.000001888793     
23.469999313354     1.194540977478     0.000001792812     
23.575000762939     1.189239978790     0.000001694132     
23.680000305176     1.183938980103     0.000001601234     
23.784999847412     1.178637981415     0.000001513347     
23.889999389648     1.173503041267     0.000001431628     
23.995000839233     1.168202042580     0.000001354149     
24.100000381470     1.162901043892     0.000001279368     
24.204999923706     1.157600045204     0.000001208828     
24.309999465942     1.152464985847     0.000001143298     
24.415000915527     1.146998047829     0.000001080081     
24.520000457764     1.141862988472     0.000001019948     
24.625000000000     1.136561989784     0.000000964826     
24.729999542236     1.131260991096     0.000000911632     
24.834999084473     1.126124978065     0.000000859594     
24.940000534058     1.120823979378     0.000000812181     
25.045000076294     1.115522980690     0.000000767467     
25.149999618530     1.110221982002     0.000000725065     
25.254999160767     1.105087041855     0.000000684591     
25.360000610352     1.099786043167     0.000000647586     
25.465000152588     1.094320058823     0.000000611738     
25.569999694824     1.089184045792     0.000000576660     
25.674999237061     1.084048986435     0.000000545052     
25.780000686646     1.078747987747     0.000000516527     
25.885000228882     1.073446989059     0.000000487617     
25.989999771118     1.068145990372     0.000000460634     
26.094999313354     1.063011050224     0.000000436350     
26.200000762939     1.057543992996     0.000000412451     
26.305000305176     1.052409052849     0.000000389323     
26.409999847412     1.047108054161     0.000000368507     
26.514999389648     1.041807055473     0.000000349619     
26.620000839233     1.036671042442     0.000000329961     
26.725000381470     1.031370997429     0.000000311844     
26.745000839233     1.020602941513     0.000000278841     
26.850000381470     1.015468001366     0.000000263632     
26.954999923706     1.010167002678     0.000000250230     
27.059999465942     1.004866003990     0.000000236996     
27.165000915527     0.999565005302     0.000000223006     
27.270000457764     0.994264006615     0.000000210654     
27.375000000000     0.989127993584     0.000000199898     
27.479999542236     0.983826994896     0.000000188639     
27.584999084473     0.978525996208     0.000000177673     
27.690000534058     0.973390996456     0.000000168599     
27.795000076294     0.968089997768     0.000000159104     
27.899999618530     0.962788999081     0.000000148810     
28.004999160767     0.957488000393     0.000000140366     
28.110000610352     0.952353000641     0.000000133182     
28.215000152588     0.947052001953     0.000000124905     
28.319999694824     0.941751003265     0.000000116922     
28.424999237061     0.936450004578     0.000000110620     
28.530000686646     0.931315004826     0.000000103772     
28.635000228882     0.926014006138     0.000000096336     
28.739999771118     0.920713007450     0.000000090748     
28.844999313354     0.915412008762     0.000000085707     
28.950000762939     0.910111010075     0.000000079321     
29.055000305176     0.904974997044     0.000000073481     
29.159999847412     0.899673998356     0.000000069154     
29.264999389648     0.894374012947     0.000000063986     
29.370000839233     0.889073014259     0.000000058818     
29.475000381470     0.883772015572     0.000000055121     
29.579999923706     0.878636002541     0.000000051172     
29.684999465942     0.873335003853     0.000000045920     
29.790000915527     0.868034005165     0.000000041929     
29.895000457764     0.862899005413     0.000000038820     
30.000000000000     0.857598006725     0.000000034955     
30.104999542236     0.852297008038     0.000000030922     
30.209999084473     0.846996009350     0.000000028569     
30.315000534058     0.841861009598     0.000000025040     
30.420000076294     0.836394011974     0.000000020754     
30.434999465942     0.825627028942     0.000000015093     
30.540000915527     0.820491015911     0.000000011824     
30.645000457764     0.815024971962     0.000000009621     
30.750000000000     0.809889018536     0.000000007288     
30.854999542236     0.804588019848     0.000000003686     
30.959999084473     0.799453020096     0.000000000997     
31.065000534058     0.794152021408     -0.000000000781     
31.170000076294     0.788851022720     -0.000000003527     
31.274999618530     0.783716022968     -0.000000006435     
31.379999160767     0.778415024281     -0.000000008153     
31.485000610352     0.773114025593     -0.000000010546     
31.590000152588     0.767978012562     -0.000000013777     
31.694999694824     0.762512028217     -0.000000015574     
31.799999237061     0.757376015186     -0.000000017042     
31.905000686646     0.752076029778     -0.000000019802     
32.009998321533     0.746940016747     -0.000000022351     
32.115001678467     0.741639018059     -0.000000023629     
32.220001220703     0.736338019371     -0.000000025817     
32.325000762939     0.731203019619     -0.000000028543     
32.430000305176     0.725902020931     -0.000000029874     
32.534999847412     0.720601022243     -0.000000031053     
32.639999389648     0.715466022491     -0.000000033769     
32.744998931885     0.709999024868     -0.000000035782     
32.849998474121     0.704864025116     -0.000000036753     
32.955001831055     0.699563026428     -0.000000038501     
33.060001373291     0.694427013397     -0.000000040621     
33.165000915527     0.689126014709     -0.000000041512     
33.270000457764     0.683825016022     -0.000000042695     
33.375000000000     0.678524971008     -0.000000044917     
33.479999542236     0.673223972321     -0.000000046172     
33.584999084473     0.668088018894     -0.000000046616     
33.689998626709     0.662787020206     -0.000000048061     
33.794998168945     0.657486021519     -0.000000049616     
33.900001525879     0.652185022831     -0.000000049942     
34.005001068115     0.647050023079     -0.000000051000     
34.110000610352     0.641749024391     -0.000000052756     
34.215000152588     0.636448025703     -0.000000053131     
34.319999694824     0.631313025951     -0.000000053139     
34.424999237061     0.625846028328     -0.000000054576     
34.529998779297     0.620711028576     -0.000000055664     
34.634998321533     0.615409970284     -0.000000055554     
34.740001678467     0.610274016857     -0.000000056366     
34.845001220703     0.604973971844     -0.000000057655     
34.950000762939     0.599672973156     -0.000000057598     
