
Cycle 1
Physical Cycle 1
Step 1

Time (s),          Potential (V),         Current (A)
0.104999996722     0.001818999997     -0.000002085120     
0.209999993443     0.007110000122     -0.000002005070     
0.314999997616     0.012400999665     -0.000001932643     
0.419999986887     0.017692999914     -0.000001860217     
0.449999988079     0.027778999880     -0.000001817008     
0.555000007153     0.033070001751     -0.000001755200     
0.660000026226     0.038361001760     -0.000001694927     
0.764999985695     0.043653000146     -0.000001638110     
0.870000004768     0.048944000155     -0.000001582828     
0.975000023842     0.054069999605     -0.000001528314     
1.080000042915     0.059360999614     -0.000001476487     
1.184999942780     0.064652003348     -0.000001426580     
1.289999961853     0.069943003356     -0.000001376673     
1.394999980927     0.075069002807     -0.000001328685     
1.500000000000     0.080526001751     -0.000001283000     
1.605000019073     0.085652001202     -0.000001237316     
1.710000038147     0.090943001211     -0.000001191632     
1.815000057220     0.096234001219     -0.000001148251     
1.919999957085     0.101525001228     -0.000001106022     
2.025000095367     0.106651000679     -0.000001063409     
2.130000114441     0.111942000687     -0.000001022331     
2.234999895096     0.117233999074     -0.000000983557     
2.339999914169     0.122524999082     -0.000000943631     
2.444999933243     0.127816006541     -0.000000904473     
2.549999952316     0.133107006550     -0.000000867619     
2.654999971390     0.138398006558     -0.000000831148     
2.759999990463     0.143524006009     -0.000000794677     
2.865000009537     0.148815006018     -0.000000759358     
2.970000028610     0.154272004962     -0.000000725959     
3.075000047684     0.159398004413     -0.000000692175     
3.180000066757     0.164689004421     -0.000000660311     
3.285000085831     0.169980004430     -0.000000628831     
3.390000104904     0.175272002816     -0.000000596968     
3.494999885559     0.180397003889     -0.000000565104     
3.599999904633     0.185689002275     -0.000000535927     
3.704999923706     0.190980002284     -0.000000507518     
3.809999942780     0.196271002293     -0.000000478342     
3.914999961853     0.201562002301     -0.000000451085     
4.019999980927     0.206688001752     -0.000000425747     
4.125000000000     0.211979001760     -0.000000400026     
4.230000019073     0.217271000147     -0.000000374304     
4.335000038147     0.222562000155     -0.000000350503     
4.440000057220     0.227853000164     -0.000000328236     
4.545000076294     0.233144000173     -0.000000305202     
4.650000095367     0.238435000181     -0.000000283704     
4.750000000000     0.245048999786     -0.000000266530     
4.855000019073     0.250340998173     -0.000000246302     
4.960000038147     0.255466997623     -0.000000228214     
5.065000057220     0.260758012533     -0.000000210966     
5.170000076294     0.266048997641     -0.000000193256     
5.275000095367     0.271340012550     -0.000000177141     
5.380000114441     0.276466012001     -0.000000162327     
5.485000133514     0.281756997108     -0.000000147051     
5.590000152588     0.287048012018     -0.000000132698     
5.695000171661     0.292340010405     -0.000000120486     
5.800000190735     0.297630995512     -0.000000107980     
5.905000209808     0.302756994963     -0.000000095264     
6.010000228882     0.308048009872     -0.000000084059     
6.114999771118     0.313338994980     -0.000000073861     
6.219999790192     0.318630009890     -0.000000063076     
6.324999809265     0.323922008276     -0.000000053256     
6.429999828339     0.329046994448     -0.000000044988     
6.534999847412     0.334338992834     -0.000000036091     
6.639999866486     0.339630007744     -0.000000026733     
6.744999885559     0.344920992851     -0.000000019137     
6.849999904633     0.350212007761     -0.000000012254     
6.954999923706     0.355504006147     -0.000000004197     
7.010000228882     0.364102005959     0.000000005394     
7.114999771118     0.369392991066     0.000000012573     
7.219999790192     0.374518990517     0.000000018505     
7.324999809265     0.379810005426     0.000000023811     
7.429999828339     0.385100990534     0.000000030238     
7.534999847412     0.390226989985     0.000000035743     
7.639999866486     0.395352989435     0.000000040214     
7.744999885559     0.400644004345     0.000000045600     
7.849999904633     0.405934989452     0.000000051410     
7.954999923706     0.411226987839     0.000000055411     
8.060000419617     0.416352987289     0.000000059489     
8.164999961853     0.421644002199     0.000000064715     
8.270000457764     0.426934987307     0.000000069212     
8.375000000000     0.432226002216     0.000000072703     
8.479999542236     0.437352001667     0.000000077383     
8.585000038147     0.442642986774     0.000000081816     
8.689999580383     0.447768986225     0.000000084963     
8.789999961853     0.454878985882     0.000000093586     
8.895000457764     0.460170000792     0.000000096229     
9.000000000000     0.465461999178     0.000000099251     
9.104999542236     0.470753014088     0.000000103448     
9.210000038147     0.475879013538     0.000000107099     
9.314999580383     0.481169998646     0.000000109575     
9.420000076294     0.486461013556     0.000000113310     
9.524999618530     0.491751998663     0.000000117716     
9.630000114441     0.497043997049     0.000000120528     
9.734999656677     0.502335011959     0.000000123214     
9.840000152588     0.507461011410     0.000000127327     
9.944999694824     0.512751996517     0.000000130768     
10.050000190735     0.518042981625     0.000000133286     
10.154999732971     0.523334026337     0.000000137105     
10.260000228882     0.528626024723     0.000000141008     
10.364999771118     0.533917009830     0.000000143400     
10.470000267029     0.539207994938     0.000000146338     
10.574999809265     0.544333994389     0.000000150492     
10.680000305176     0.549624979496     0.000000153682     
10.784999847412     0.554916024208     0.000000156535     
10.890000343323     0.560207009315     0.000000160312     
10.994999885559     0.565499007702     0.000000163880     
11.100000381470     0.570789992809     0.000000166314     
11.204999923706     0.575915992260     0.000000169881     
11.310000419617     0.581206977367     0.000000174203     
11.414999961853     0.586498022079     0.000000177057     
11.520000457764     0.591789007187     0.000000180079     
11.625000000000     0.597081005573     0.000000184317     
11.729999542236     0.602371990681     0.000000187884     
11.835000038147     0.607497990131     0.000000190612     
11.939999580383     0.612788975239     0.000000194767     
12.045000076294     0.618080019951     0.000000199173     
12.149999618530     0.623371005058     0.000000202069     
12.255000114441     0.628663003445     0.000000205385     
12.359999656677     0.633953988552     0.000000210043     
12.465000152588     0.639244973660     0.000000213988     
12.569999694824     0.644370973110     0.000000217345     
12.675000190735     0.649662017822     0.000000222003     
12.779999732971     0.654953002930     0.000000226326     
12.885000228882     0.660079002380     0.000000229683     
12.989999771118     0.665535986423     0.000000233838     
13.095000267029     0.670826971531     0.000000239503     
13.199999809265     0.675952970982     0.000000243490     
13.305000305176     0.681244015694     0.000000247687     
13.409999847412     0.686535000801     0.000000252807     
13.515000343323     0.691825985909     0.000000257801     
13.619999885559     0.697117984295     0.000000261872     
13.725000381470     0.702409029007     0.000000267495     
13.829999923706     0.707700014114     0.000000273370     
13.935000419617     0.712826013565     0.000000278071     
14.039999961853     0.718116998672     0.000000283107     
14.145000457764     0.723407983780     0.000000289821     
14.250000000000     0.728699982166     0.000000295655     
14.354999542236     0.733825981617     0.000000300984     
14.460000038147     0.739282011986     0.000000307951     
14.564999580383     0.744572997093     0.000000314875     
14.670000076294     0.749698996544     0.000000320373     
14.774999618530     0.754989981651     0.000000326878     
14.880000114441     0.760281980038     0.000000334893     
14.984999656677     0.765573024750     0.000000341986     
15.090000152588     0.770699024200     0.000000348784     
15.194999694824     0.775990009308     0.000000357010     
15.300000190735     0.781280994415     0.000000364984     
15.404999732971     0.786571979523     0.000000372118     
15.510000228882     0.791697978973     0.000000380469     
15.614999771118     0.796989023685     0.000000389702     
15.720000267029     0.802281022072     0.000000397759     
15.824999809265     0.807572007179     0.000000406111     
15.930000305176     0.812862992287     0.000000415805     
16.034999847412     0.818153977394     0.000000424912     
16.139999389648     0.823279976845     0.000000433641     
16.245000839233     0.828571021557     0.000000444594     
16.350000381470     0.833863019943     0.000000457184     
16.454999923706     0.839154005051     0.000000473048     
16.559999465942     0.844444990158     0.000000495709     
16.665000915527     0.849570989609     0.000000522946     
16.770000457764     0.854861974716     0.000000549049     
16.875000000000     0.860153019428     0.000000574229     
16.979999542236     0.865279018879     0.000000599283     
17.084999084473     0.870570003986     0.000000622616     
17.190000534058     0.875862002373     0.000000643684     
17.295000076294     0.881152987480     0.000000666304     
17.399999618530     0.886278986931     0.000000690518     
17.504999160767     0.891569972038     0.000000712299     
17.610000610352     0.896861016750     0.000000730051     
17.715000152588     0.902152001858     0.000000744320     
17.819999694824     0.907444000244     0.000000754224     
17.924999237061     0.912734985352     0.000000761190     
18.030000686646     0.917860984802     0.000000768702     
18.135000228882     0.923152029514     0.000000776466     
18.239999771118     0.928443014622     0.000000783223     
18.344999313354     0.933733999729     0.000000791196     
18.450000762939     0.938859999180     0.000000800681     
18.555000305176     0.944150984287     0.000000809620     
18.659999847412     0.949442982674     0.000000818475     
18.764999389648     0.954734027386     0.000000828966     
18.870000839233     0.959860026836     0.000000839248     
18.975000381470     0.965151011944     0.000000848523     
19.079999923706     0.970441997051     0.000000859098     
19.184999465942     0.975732982159     0.000000871017     
19.290000915527     0.981024980545     0.000000881592     
19.395000457764     0.986316025257     0.000000892168     
19.500000000000     0.991442024708     0.000000904128     
19.604999542236     0.996733009815     0.000000916005     
19.709999084473     1.002024054527     0.000000926706     
19.815000534058     1.007315039635     0.000000938835     
19.920000076294     1.012441039085     0.000000951802     
20.024999618530     1.017732024193     0.000000963553     
20.129999160767     1.023023962975     0.000000975430     
20.235000610352     1.028314948082     0.000000988985     
20.340000152588     1.033606052399     0.000001001827     
20.444999694824     1.038897037506     0.000001014417     
20.549999237061     1.044188022614     0.000001028350     
20.620000839233     1.052621006966     0.000001063792     
20.725000381470     1.057911992073     0.000001077229     
20.829999923706     1.063204050064     0.000001090666     
20.934999465942     1.068495035172     0.000001105638     
21.040000915527     1.073786020279     0.000001121378     
21.145000457764     1.079077005386     0.000001135966     
21.250000000000     1.084203004837     0.000001151322     
21.354999542236     1.089493989944     0.000001168214     
21.459999084473     1.094786047935     0.000001184722     
21.565000534058     1.100077033043     0.000001200845     
21.670000076294     1.105368018150     0.000001219657     
21.774999618530     1.110494017601     0.000001238084     
21.879999160767     1.115785002708     0.000001255743     
21.985000610352     1.121075987816     0.000001274555     
22.090000152588     1.126368045807     0.000001295669     
22.194999694824     1.131659030914     0.000001315632     
22.299999237061     1.136950016022     0.000001336747     
22.405000686646     1.142241001129     0.000001359013     
22.510000228882     1.147367000580     0.000001381663     
22.614999771118     1.152657985687     0.000001403930     
22.719999313354     1.157950043678     0.000001428499     
22.825000762939     1.163241028786     0.000001454221     
22.930000305176     1.168532013893     0.000001479942     
23.034999847412     1.173822999001     0.000001505280     
23.139999389648     1.178948998451     0.000001533305     
23.245000839233     1.184239983559     0.000001560946     
23.350000381470     1.189697027206     0.000001589354     
23.454999923706     1.194823026657     0.000001619683     
23.559999465942     1.197798967361     0.000001618915     
23.665000915527     1.193168997765     0.000001528698     
23.770000457764     1.188042998314     0.000001442320     
23.875000000000     1.182752013206     0.000001362468     
23.979999542236     1.177461028099     0.000001286840     
24.084999084473     1.172170042992     0.000001215050     
24.190000534058     1.166877985001     0.000001148635     
24.295000076294     1.161586999893     0.000001085291     
24.399999618530     1.156461000443     0.000001024634     
24.504999160767     1.151170015335     0.000000968201     
24.610000610352     1.145879030228     0.000000915606     
24.715000152588     1.140588045120     0.000000864931     
24.819999694824     1.135462045670     0.000000816560     
24.924999237061     1.130005002022     0.000000772795     
25.030000686646     1.124879002571     0.000000730566     
25.135000228882     1.119588017464     0.000000689872     
25.239999771118     1.114297032356     0.000000653017     
25.344999313354     1.109006047249     0.000000618466     
25.450000762939     1.103880047798     0.000000584299     
25.555000305176     1.098588943481     0.000000552819     
25.659999847412     1.093297958374     0.000000524026     
25.764999389648     1.088006019592     0.000000496385     
25.870000839233     1.082880020142     0.000000470280     
25.975000381470     1.077424049377     0.000000446478     
26.079999923706     1.072132945061     0.000000423828     
26.184999465942     1.067006945610     0.000000401945     
26.290000915527     1.061715960503     0.000000381982     
26.395000457764     1.056424021721     0.000000364707     
26.500000000000     1.051133036613     0.000000346664     
26.604999542236     1.045842051506     0.000000329772     
26.709999084473     1.040716052055     0.000000315567     
26.754999160767     1.031126022339     0.000000280840     
26.860000610352     1.026000022888     0.000000267621     
26.965000152588     1.020709037781     0.000000256374     
27.069999694824     1.015416979790     0.000000245463     
27.174999237061     1.010125994682     0.000000233964     
27.280000686646     1.004999995232     0.000000223850     
27.385000228882     0.999544024467     0.000000215331     
27.489999771118     0.994418025017     0.000000205972     
27.594999313354     0.989126980305     0.000000197243     
27.700000762939     0.983834981918     0.000000189815     
27.805000305176     0.978709995747     0.000000182429     
27.909999847412     0.973417997360     0.000000174161     
28.014999389648     0.968127012253     0.000000167573     
28.120000839233     0.962836027145     0.000000162075     
28.225000381470     0.957544982433     0.000000155276     
28.329999923706     0.952253997326     0.000000148520     
28.434999465942     0.947127997875     0.000000143526     
28.540000915527     0.941835999489     0.000000137860     
28.645000457764     0.936545014381     0.000000131565     
28.750000000000     0.931254029274     0.000000126487     
28.854999542236     0.925962984562     0.000000121871     
28.959999084473     0.920671999454     0.000000115828     
29.065000534058     0.915546000004     0.000000110162     
29.170000076294     0.910255014896     0.000000105714     
29.274999618530     0.904963016510     0.000000100426     
29.379999160767     0.899671971798     0.000000094635     
29.485000610352     0.894380986691     0.000000089976     
29.590000152588     0.889090001583     0.000000084731     
29.694999694824     0.883964002132     0.000000078561     
29.799999237061     0.878673017025     0.000000073232     
29.905000686646     0.873381018639     0.000000068909     
30.010000228882     0.868089973927     0.000000062950     
30.114999771118     0.862798988819     0.000000056865     
30.219999313354     0.857672989368     0.000000051871     
30.325000762939     0.852382004261     0.000000046247     
30.430000305176     0.847091019154     0.000000039197     
30.534999847412     0.841799020767     0.000000033783     
30.639999389648     0.836507976055     0.000000028327     
30.745000839233     0.831216990948     0.000000020941     
30.850000381470     0.826090991497     0.000000013303     
30.954999923706     0.820800006390     0.000000007050     
31.020000457764     0.812532007694     -0.000000005524     
31.125000000000     0.807406008244     -0.000000014095     
31.229999542236     0.802115023136     -0.000000021740     
31.334999084473     0.796823978424     -0.000000029716     
31.440000534058     0.791697978973     -0.000000039123     
31.545000076294     0.786406993866     -0.000000048114     
31.649999618530     0.781280994415     -0.000000056372     
31.754999160767     0.775990009308     -0.000000065734     
31.860000610352     0.770864009857     -0.000000075442     
31.875000000000     0.759620010853     -0.000000098873     
31.979999542236     0.754329025745     -0.000000105966     
32.084999084473     0.749203026295     -0.000000113604     
32.189998626709     0.743911981583     -0.000000123382     
32.294998168945     0.738620996475     -0.000000133538     
32.400001525879     0.733328998089     -0.000000142267     
32.505001068115     0.728038012981     -0.000000151793     
32.610000610352     0.722912013531     -0.000000162033     
32.715000152588     0.717455983162     -0.000000170426     
32.819999694824     0.712329983711     -0.000000178106     
32.924999237061     0.707038998604     -0.000000186290     
33.029998779297     0.701748013496     -0.000000193298     
33.134998321533     0.696622014046     -0.000000198544     
33.240001678467     0.691330015659     -0.000000204168     
33.345001220703     0.686038970947     -0.000000209833     
33.450000762939     0.680747985840     -0.000000214239     
33.555000305176     0.675457000732     -0.000000219024     
33.659999847412     0.670166015625     -0.000000224689     
33.764999389648     0.664874017239     -0.000000229222     
33.869998931885     0.659748017788     -0.000000232579     
33.974998474121     0.654456973076     -0.000000237363     
34.080001831055     0.649165987968     -0.000000242231     
34.185001373291     0.643875002861     -0.000000245966     
34.290000915527     0.638584017754     -0.000000250457     
34.395000457764     0.633292019367     -0.000000256038     
34.500000000000     0.628000974655     -0.000000260067     
34.604999542236     0.622709989548     -0.000000264180     
34.709999084473     0.617583990097     -0.000000269887     
34.814998626709     0.612293004990     -0.000000275511     
34.919998168945     0.607002019882     -0.000000279665     
35.025001525879     0.601710021496     -0.000000284869     
