
Cycle 1
Physical Cycle 1
Step 1

Time (s),          Potential (V),         Current (A)
0.104999996722     0.002485000063     -0.000000064962     
0.209999993443     0.007619999815     -0.000000057320     
0.314999997616     0.012920999900     -0.000000049677     
0.419999986887     0.018222000450     -0.000000045856     
0.449999988079     0.028161000460     -0.000000033536     
0.555000007153     0.033461999148     -0.000000030452     
0.660000026226     0.038763001561     -0.000000026597     
0.764999985695     0.044064000249     -0.000000023899     
0.795000016689     0.054003998637     -0.000000018570     
0.899999976158     0.059305001050     -0.000000016847     
1.004999995232     0.064606003463     -0.000000014410     
1.110000014305     0.069907002151     -0.000000012772     
1.139999985695     0.080012001097     -0.000000009704     
1.245000004768     0.085147000849     -0.000000008506     
1.350000023842     0.090447999537     -0.000000006492     
1.455000042915     0.095748998225     -0.000000005313     
1.559999942780     0.101049996912     -0.000000005123     
1.664999961853     0.106184996665     -0.000000003944     
1.769999980927     0.111486002803     -0.000000002218     
1.875000000000     0.116787001491     -0.000000001460     
1.980000019073     0.121922001243     -0.000000000899     
2.085000038147     0.127222999930     0.000000000326     
2.190000057220     0.132523998618     0.000000000789     
2.295000076294     0.137824997306     0.000000000929     
2.400000095367     0.143125995994     0.000000002355     
2.505000114441     0.148261994123     0.000000003546     
2.609999895096     0.153562992811     0.000000003466     
2.714999914169     0.158864006400     0.000000003693     
2.819999933243     0.164165005088     0.000000004808     
2.924999952316     0.169300004840     0.000000005097     
3.029999971390     0.174601003528     0.000000005385     
3.134999990463     0.179902002215     0.000000006530     
3.240000009537     0.185037001967     0.000000007049     
3.345000028610     0.190503999591     0.000000006522     
3.450000047684     0.195638999343     0.000000007106     
3.555000066757     0.200939998031     0.000000008305     
3.660000085831     0.206240996718     0.000000008559     
3.765000104904     0.211375996470     0.000000008604     
3.869999885559     0.216676995158     0.000000009476     
3.974999904633     0.221977993846     0.000000009480     
4.079999923706     0.227279007435     0.000000009310     
4.184999942780     0.232415005565     0.000000010405     
4.289999961853     0.237715005875     0.000000011266     
4.394999980927     0.243182003498     0.000000010936     
4.500000000000     0.248317003250     0.000000010925     
4.605000019073     0.253618001938     0.000000011771     
4.710000038147     0.258919000626     0.000000011956     
4.815000057220     0.264055013657     0.000000012070     
4.920000076294     0.269356012344     0.000000013155     
5.025000095367     0.274491012096     0.000000013341     
5.130000114441     0.279958009720     0.000000012779     
5.235000133514     0.285093009472     0.000000013272     
5.340000152588     0.290560007095     0.000000014334     
5.445000171661     0.295695006847     0.000000014429     
5.550000190735     0.300996005535     0.000000014520     
5.655000209808     0.306297004223     0.000000015233     
5.760000228882     0.311432003975     0.000000015206     
5.864999771118     0.316733002663     0.000000015051     
5.969999790192     0.322034001350     0.000000015961     
6.074999809265     0.327335000038     0.000000016810     
6.179999828339     0.332635998726     0.000000016469     
6.284999847412     0.337936997414     0.000000016469     
6.389999866486     0.343071997166     0.000000017258     
6.494999885559     0.348372995853     0.000000017379     
6.599999904633     0.353509008884     0.000000017599     
6.704999923706     0.358810007572     0.000000018581     
6.809999942780     0.364111006260     0.000000018911     
6.914999961853     0.369412004948     0.000000018282     
7.019999980927     0.374713003635     0.000000018737     
7.125000000000     0.379848003387     0.000000019791     
7.230000019073     0.385149002075     0.000000019927     
7.335000038147     0.390450000763     0.000000020022     
7.440000057220     0.395750999451     0.000000020868     
7.545000076294     0.401051998138     0.000000020826     
7.650000095367     0.406186997890     0.000000020633     
7.755000114441     0.411487996578     0.000000021622     
7.860000133514     0.416788995266     0.000000022586     
7.965000152588     0.422089993954     0.000000022263     
8.069999694824     0.427390992641     0.000000022313     
8.175000190735     0.432525992393     0.000000023257     
8.279999732971     0.437826991081     0.000000023355     
8.385000228882     0.443127989769     0.000000023754     
8.489999771118     0.448428988457     0.000000024850     
8.595000267029     0.453563988209     0.000000025206     
8.699999809265     0.458864986897     0.000000024709     
8.805000305176     0.464165985584     0.000000025214     
8.909999847412     0.469467014074     0.000000026374     
9.015000343323     0.474602997303     0.000000026700     
9.119999885559     0.480069011450     0.000000026966     
9.225000381470     0.485204994678     0.000000027967     
9.329999923706     0.490505993366     0.000000028141     
9.435000419617     0.495640993118     0.000000027967     
9.539999961853     0.500941991806     0.000000029108     
9.645000457764     0.506408989429     0.000000030318     
9.750000000000     0.511377990246     0.000000030231     
9.854999542236     0.516678988934     0.000000030530     
9.960000038147     0.522145986557     0.000000031596     
10.064999580383     0.527280986309     0.000000032062     
10.170000076294     0.532581984997     0.000000032456     
10.274999618530     0.537882983685     0.000000033818     
10.380000114441     0.543017983437     0.000000034785     
10.484999656677     0.548318982124     0.000000035153     
10.590000152588     0.553619980812     0.000000035411     
10.694999694824     0.558920979500     0.000000036757     
10.800000190735     0.564056992531     0.000000037299     
10.904999732971     0.569357991219     0.000000037944     
11.010000228882     0.574658989906     0.000000039233     
11.114999771118     0.579959988594     0.000000039806     
11.220000267029     0.585094988346     0.000000039870     
11.324999809265     0.590395987034     0.000000041239     
11.430000305176     0.595696985722     0.000000042923     
11.534999847412     0.600831985474     0.000000043325     
11.640000343323     0.606298983097     0.000000043988     
11.744999885559     0.611433982849     0.000000045372     
11.850000381470     0.616734981537     0.000000046157     
11.954999923706     0.622035980225     0.000000046893     
12.060000419617     0.627170979977     0.000000048687     
12.164999961853     0.632471978664     0.000000050116     
12.270000457764     0.637772977352     0.000000050344     
12.375000000000     0.642908990383     0.000000051334     
12.479999542236     0.648209989071     0.000000053275     
12.585000038147     0.653510987759     0.000000054242     
12.689999580383     0.658811986446     0.000000055342     
12.795000076294     0.664111971855     0.000000057280     
12.899999618530     0.669247984886     0.000000058447     
13.005000114441     0.674548983574     0.000000058895     
13.109999656677     0.679849982262     0.000000060670     
13.215000152588     0.684984982014     0.000000062911     
13.319999694824     0.690285980701     0.000000064018     
13.425000190735     0.695586979389     0.000000065250     
13.529999732971     0.700887978077     0.000000067234     
13.635000228882     0.706022977829     0.000000068584     
13.739999771118     0.711323976517     0.000000069771     
13.845000267029     0.716624975204     0.000000072194     
13.949999809265     0.721925973892     0.000000074340     
14.055000305176     0.727226972580     0.000000075243     
14.159999847412     0.732362985611     0.000000076926     
14.265000343323     0.737662971020     0.000000079376     
14.369999885559     0.742798984051     0.000000081018     
14.475000381470     0.748099982738     0.000000082812     
14.579999923706     0.753400981426     0.000000085504     
14.685000419617     0.758701980114     0.000000087510     
14.784999847412     0.765658974648     0.000000090118     
14.890000343323     0.770959973335     0.000000092933     
14.994999885559     0.776260972023     0.000000094908     
15.100000381470     0.781561970711     0.000000096882     
15.204999923706     0.786696970463     0.000000099655     
15.310000419617     0.791998028755     0.000000101840     
15.414999961853     0.797299027443     0.000000103688     
15.520000457764     0.802600026131     0.000000106755     
15.625000000000     0.807901024818     0.000000109822     
15.729999542236     0.813202023506     0.000000111923     
15.835000038147     0.818337976933     0.000000114276     
15.939999580383     0.823638975620     0.000000117553     
16.045000076294     0.828939974308     0.000000120241     
16.149999618530     0.834074974060     0.000000122888     
16.254999160767     0.839375972748     0.000000126459     
16.360000610352     0.844676971436     0.000000129736     
16.465000152588     0.849978029728     0.000000131963     
16.569999694824     0.855113029480     0.000000135198     
16.674999237061     0.860414028168     0.000000139189     
16.780000686646     0.865715026855     0.000000142340     
16.885000228882     0.871016025543     0.000000145491     
16.989999771118     0.876151025295     0.000000149525     
17.094999313354     0.881452023983     0.000000153138     
17.200000762939     0.886753022671     0.000000156037     
17.305000305176     0.892054021358     0.000000160154     
17.409999847412     0.897189974785     0.000000164817     
17.514999389648     0.902656018734     0.000000168515     
17.620000839233     0.907791972160     0.000000172254     
17.725000381470     0.913092970848     0.000000177043     
17.829999923706     0.918394029140     0.000000181371     
17.934999465942     0.923529028893     0.000000185446     
18.040000915527     0.928830027580     0.000000190781     
18.145000457764     0.934131026268     0.000000195991     
18.250000000000     0.939432024956     0.000000200192     
18.354999542236     0.944733023643     0.000000205108     
18.459999084473     0.950034022331     0.000000211032     
18.565000534058     0.955335021019     0.000000216367     
18.670000076294     0.960470020771     0.000000221787     
18.774999618530     0.965771019459     0.000000228173     
18.879999160767     0.971072018147     0.000000234223     
18.985000610352     0.976373016834     0.000000239643     
19.090000152588     0.981508016586     0.000000246155     
19.194999694824     0.986809015274     0.000000253591     
19.299999237061     0.991945028305     0.000000260103     
19.405000686646     0.997246026993     0.000000266909     
19.510000228882     1.002545952797     0.000000274556     
19.614999771118     1.007846951485     0.000000281950     
19.719999313354     1.013147950172     0.000000288924     
19.825000762939     1.018448948860     0.000000297285     
19.930000305176     1.023584961891     0.000000306023     
20.034999847412     1.028885960579     0.000000313796     
20.139999389648     1.034186959267     0.000000322072     
20.245000839233     1.039322018623     0.000000331231     
20.350000381470     1.044623017311     0.000000340138     
20.454999923706     1.049924015999     0.000000349045     
20.559999465942     1.055225014687     0.000000359170     
20.665000915527     1.060359954834     0.000000368959     
20.770000457764     1.065660953522     0.000000378076     
20.875000000000     1.070961952209     0.000000388285     
20.979999542236     1.076262950897     0.000000399250     
21.084999084473     1.081563949585     0.000000409754     
21.190000534058     1.086699008942     0.000000420215     
21.295000076294     1.092000007629     0.000000431769     
21.399999618530     1.097301006317     0.000000443112     
21.504999160767     1.102437019348     0.000000453910     
21.610000610352     1.107738018036     0.000000466009     
21.715000152588     1.113039016724     0.000000478949     
21.819999694824     1.118340015411     0.000000491259     
21.924999237061     1.123641014099     0.000000503611     
22.030000686646     1.128775954247     0.000000517307     
22.135000228882     1.134076952934     0.000000530667     
22.239999771118     1.139377951622     0.000000544070     
22.344999313354     1.144513010979     0.000000558942     
22.450000762939     1.149814009666     0.000000574277     
22.555000305176     1.154948949814     0.000000588730     
22.659999847412     1.160249948502     0.000000604106     
22.764999389648     1.165550947189     0.000000620786     
22.870000839233     1.170851945877     0.000000637171     
22.975000381470     1.176152944565     0.000000654018     
23.079999923706     1.181453943253     0.000000672336     
23.184999465942     1.186589956284     0.000000690485     
23.290000915527     1.191890954971     0.000000708131     
23.395000457764     1.197191953659     0.000000727415     
23.500000000000     1.196859955788     0.000000711072     
23.604999542236     1.191558957100     0.000000670109     
23.709999084473     1.186257958412     0.000000632717     
23.815000534058     1.181123018265     0.000000598771     
23.920000076294     1.175822019577     0.000000566379     
24.024999618530     1.170521020889     0.000000535625     
24.129999160767     1.165220022202     0.000000507938     
24.235000610352     1.160084962845     0.000000482352     
24.340000152588     1.154783964157     0.000000456976     
24.444999694824     1.149647951126     0.000000433239     
24.549999237061     1.144348025322     0.000000411728     
24.655000686646     1.139047026634     0.000000390764     
24.760000228882     1.133911013603     0.000000370850     
24.864999771118     1.128610014915     0.000000352910     
24.969999313354     1.123309016228     0.000000335685     
25.075000762939     1.118008017540     0.000000318333     
25.180000305176     1.112872958183     0.000000302536     
25.284999847412     1.107571959496     0.000000288168     
25.389999389648     1.102270960808     0.000000273799     
25.495000839233     1.096969962120     0.000000260145     
25.600000381470     1.091835021973     0.000000248003     
25.704999923706     1.086534023285     0.000000235778     
25.809999465942     1.081233024597     0.000000223552     
25.915000915527     1.076097011566     0.000000212796     
26.020000457764     1.070796966553     0.000000203217     
26.125000000000     1.065495967865     0.000000193050     
26.229999542236     1.060194969177     0.000000183387     
26.334999084473     1.054893970490     0.000000175027     
26.440000534058     1.049592971802     0.000000166414     
26.545000076294     1.044456958771     0.000000157885     
26.649999618530     1.039155960083     0.000000150869     
26.754999160767     1.033854961395     0.000000144105     
26.860000610352     1.028553962708     0.000000136585     
26.965000152588     1.023252964020     0.000000129778     
27.069999694824     1.018118023872     0.000000124191     
27.174999237061     1.012817025185     0.000000118141     
27.280000686646     1.007681965828     0.000000112385     
27.385000228882     1.002215027809     0.000000107596     
27.489999771118     0.997080028057     0.000000102680     
27.594999313354     0.991779029369     0.000000097008     
27.700000762939     0.986644029617     0.000000092429     
27.805000305176     0.981176972389     0.000000088942     
27.909999847412     0.976041972637     0.000000084614     
28.014999389648     0.970740973949     0.000000080371     
28.120000839233     0.965439975262     0.000000077094     
28.225000381470     0.960304021835     0.000000073439     
28.329999923706     0.954837977886     0.000000069364     
28.434999465942     0.949702024460     0.000000066675     
28.540000915527     0.944401025772     0.000000064196     
28.645000457764     0.939100027084     0.000000060667     
28.750000000000     0.933965027332     0.000000057474     
28.854999542236     0.928664028645     0.000000055331     
28.959999084473     0.923362970352     0.000000052516     
29.065000534058     0.918061971664     0.000000049786     
29.170000076294     0.912926971912     0.000000048147     
29.274999618530     0.907625973225     0.000000046046     
29.379999160767     0.902324974537     0.000000043021     
29.485000610352     0.897023975849     0.000000040837     
29.590000152588     0.891722977161     0.000000039492     
29.694999694824     0.886421978474     0.000000037434     
29.799999237061     0.881286978722     0.000000035417     
29.905000686646     0.875985980034     0.000000033989     
30.010000228882     0.870684981346     0.000000032266     
30.114999771118     0.865383982658     0.000000029871     
30.219999313354     0.860248029232     0.000000028611     
30.260000228882     0.850475013256     0.000000026044     
30.364999771118     0.845340013504     0.000000024558     
30.469999313354     0.840039014816     0.000000023663     
30.575000762939     0.834738016129     0.000000021990     
30.680000305176     0.829437017441     0.000000019984     
30.784999847412     0.824136018753     0.000000019264     
30.889999389648     0.819000005722     0.000000018733     
30.995000839233     0.813699007034     0.000000017019     
31.100000381470     0.808398008347     0.000000015532     
31.204999923706     0.803263008595     0.000000014854     
31.309999465942     0.797962009907     0.000000013504     
31.415000915527     0.792661011219     0.000000012226     
31.520000457764     0.787526011467     0.000000011937     
31.625000000000     0.782059013844     0.000000011213     
31.729999542236     0.776924014091     0.000000009294     
31.834999084473     0.771623015404     0.000000008259     
31.940000534058     0.766322016716     0.000000008062     
32.044998168945     0.761187016964     0.000000007061     
32.150001525879     0.755886018276     0.000000006064     
32.255001068115     0.750585019588     0.000000005734     
32.360000610352     0.745284020901     0.000000004729     
32.465000152588     0.739983022213     0.000000003037     
32.569999694824     0.734847009182     0.000000002711     
32.674999237061     0.729546010494     0.000000002727     
32.779998779297     0.724245011806     0.000000001524     
32.884998321533     0.718944013119     0.000000000485     
32.990001678467     0.713809013367     0.000000000171     
33.095001220703     0.708508014679     -0.000000000781     
33.200000762939     0.703207015991     -0.000000001854     
33.305000305176     0.697906017303     -0.000000001752     
33.409999847412     0.692771017551     -0.000000002014     
33.514999389648     0.687470018864     -0.000000003557     
33.619998931885     0.682169020176     -0.000000004452     
33.724998474121     0.676868021488     -0.000000004380     
33.830001831055     0.671733021736     -0.000000005161     
33.935001373291     0.666432023048     -0.000000005809     
34.040000915527     0.660965025425     -0.000000005844     
34.145000457764     0.655830025673     -0.000000006594     
34.250000000000     0.650694012642     -0.000000008104     
34.354999542236     0.645393013954     -0.000000008327     
34.459999084473     0.640092015266     -0.000000008138     
34.564998626709     0.634791016579     -0.000000009002     
34.669998168945     0.629490971565     -0.000000009829     
34.775001525879     0.624355018139     -0.000000009992     
34.880001068115     0.619054019451     -0.000000010754     
34.985000610352     0.613753020763     -0.000000011778     
35.090000152588     0.608452022076     -0.000000011509     
35.194999694824     0.603317022324     -0.000000011589     
