
Cycle 1
Physical Cycle 1
Step 1

Time (s),          Potential (V),         Current (A)
0.104999996722     0.002313999925     -0.000001799534     
0.209999993443     0.007766999770     -0.000001634545     
0.314999997616     0.012889999896     -0.000001488740     
0.419999986887     0.018177999184     -0.000001354447     
0.449999988079     0.028257999569     -0.000001063493     
0.555000007153     0.033546000719     -0.000000960151     
0.660000026226     0.038833998144     -0.000000865293     
0.764999985695     0.043956998736     -0.000000776990     
0.870000004768     0.049410000443     -0.000000696399     
0.975000023842     0.054533001035     -0.000000623906     
1.080000042915     0.059985999018     -0.000000555654     
1.184999942780     0.065108999610     -0.000000492801     
1.289999961853     0.070396997035     -0.000000436503     
1.394999980927     0.075685001910     -0.000000385217     
1.500000000000     0.080972999334     -0.000000336246     
1.605000019073     0.086260996759     -0.000000292673     
1.710000038147     0.091384001076     -0.000000252570     
1.815000057220     0.096671998501     -0.000000214781     
1.884999990463     0.104769997299     -0.000000155923     
1.990000009537     0.110058002174     -0.000000126038     
2.095000028610     0.115345999599     -0.000000097969     
2.200000047684     0.120467998087     -0.000000070912     
2.305000066757     0.125755995512     -0.000000045840     
2.410000085831     0.131044998765     -0.000000023173     
2.515000104904     0.136333003640     -0.000000000084     
2.619999885559     0.141620993614     0.000000021569     
2.724999904633     0.146742999554     0.000000040817     
2.829999923706     0.152031004429     0.000000059600     
2.934999942780     0.157319992781     0.000000078974     
3.039999961853     0.162441998720     0.000000095732     
3.144999980927     0.167730003595     0.000000111982     
3.250000000000     0.173017993569     0.000000128486     
3.355000019073     0.178305998445     0.000000143471     
3.460000038147     0.183595001698     0.000000156936     
3.565000057220     0.188883006573     0.000000171371     
3.670000076294     0.194170996547     0.000000184288     
3.775000095367     0.199293002486     0.000000195262     
3.880000114441     0.204581007361     0.000000206701     
3.984999895096     0.209869995713     0.000000218351     
4.090000152588     0.215158000588     0.000000227341     
4.195000171661     0.220280006528     0.000000235952     
4.300000190735     0.225567996502     0.000000244943     
4.405000209808     0.231022000313     0.000000252287     
4.510000228882     0.236145004630     0.000000258534     
4.614999771118     0.241432994604     0.000000265330     
4.719999790192     0.246720999479     0.000000270353     
4.824999809265     0.252009004354     0.000000274152     
4.929999828339     0.257131010294     0.000000278879     
5.034999847412     0.262419998646     0.000000282805     
5.139999866486     0.267708003521     0.000000284367     
5.244999885559     0.272996008396     0.000000286477     
5.349999904633     0.278284013271     0.000000288925     
5.454999923706     0.283571988344     0.000000289770     
5.559999942780     0.288695007563     0.000000289643     
5.664999961853     0.293983012438     0.000000290656     
5.769999980927     0.299270987511     0.000000290234     
5.875000000000     0.304558992386     0.000000289094     
5.980000019073     0.309846997261     0.000000288968     
6.085000038147     0.315135002136     0.000000288166     
6.190000057220     0.320423007011     0.000000285675     
6.295000076294     0.325711011887     0.000000284662     
6.400000095367     0.330834001303     0.000000283776     
6.505000114441     0.336122006178     0.000000281665     
6.610000133514     0.341410011053     0.000000279428     
6.715000152588     0.346697986126     0.000000278879     
6.820000171661     0.351985991001     0.000000276980     
6.925000190735     0.357273995876     0.000000275249     
7.030000209808     0.362396985292     0.000000274574     
7.135000228882     0.367684990168     0.000000273392     
7.239999771118     0.372972995043     0.000000271324     
7.344999790192     0.378260999918     0.000000271240     
7.449999809265     0.383549004793     0.000000270944     
7.554999828339     0.388837009668     0.000000269340     
7.659999847412     0.394125014544     0.000000268496     
7.764999866486     0.399412989616     0.000000269129     
7.869999885559     0.404536008835     0.000000268285     
7.974999904633     0.409824013710     0.000000267525     
8.079999923706     0.415111988783     0.000000267736     
8.185000419617     0.420399993658     0.000000267525     
8.289999961853     0.425687998533     0.000000266596     
8.395000457764     0.430976003408     0.000000267441     
8.500000000000     0.436264008284     0.000000267483     
8.604999542236     0.441552013159     0.000000266343     
8.710000038147     0.446675002575     0.000000266428     
8.814999580383     0.451963007450     0.000000267525     
8.920000076294     0.457251012325     0.000000266723     
9.024999618530     0.462538987398     0.000000266174     
9.130000114441     0.467826992273     0.000000266976     
9.234999656677     0.473114997149     0.000000266723     
9.340000152588     0.478237986565     0.000000266259     
9.444999694824     0.483525991440     0.000000266934     
9.550000190735     0.488813996315     0.000000266934     
9.654999732971     0.494102001190     0.000000266006     
9.760000228882     0.499390006065     0.000000266596     
9.864999771118     0.504678010941     0.000000267356     
9.970000267029     0.509966015816     0.000000266343     
10.074999809265     0.515254020691     0.000000266217     
10.180000305176     0.520376980305     0.000000267272     
10.284999847412     0.525830984116     0.000000267103     
10.390000343323     0.530952990055     0.000000266765     
10.494999885559     0.536240994930     0.000000267652     
10.600000381470     0.541528999805     0.000000267736     
10.704999923706     0.546818017960     0.000000267356     
10.810000419617     0.551940023899     0.000000268454     
10.914999961853     0.557228028774     0.000000269171     
11.020000457764     0.562515974045     0.000000268496     
11.125000000000     0.567803978920     0.000000269129     
11.229999542236     0.572926998138     0.000000270649     
11.335000038147     0.578381001949     0.000000270817     
11.439999580383     0.583669006824     0.000000270775     
11.545000076294     0.588791012764     0.000000272379     
11.649999618530     0.594079971313     0.000000272928     
11.755000114441     0.599367976189     0.000000273350     
11.859999656677     0.604655981064     0.000000274996     
11.965000152588     0.609943985939     0.000000276094     
12.069999694824     0.615231990814     0.000000276051     
12.175000190735     0.620519995689     0.000000277782     
12.279999732971     0.625808000565     0.000000279893     
12.385000228882     0.630931019783     0.000000280357     
12.489999771118     0.636219024658     0.000000281285     
12.595000267029     0.641507029533     0.000000283734     
12.699999809265     0.646794974804     0.000000285042     
12.805000305176     0.652082979679     0.000000286351     
12.909999847412     0.657370984554     0.000000288714     
13.015000343323     0.662658989429     0.000000290572     
13.119999885559     0.667782008648     0.000000291669     
13.225000381470     0.673234999180     0.000000294581     
13.329999923706     0.678358018398     0.000000297114     
13.435000419617     0.683646023273     0.000000298380     
13.539999961853     0.688934028149     0.000000300617     
13.645000457764     0.694221973419     0.000000304205     
13.750000000000     0.699344992638     0.000000306274     
13.854999542236     0.704632997513     0.000000308384     
13.960000038147     0.709921002388     0.000000311845     
14.064999580383     0.715209007263     0.000000314547     
14.170000076294     0.720497012138     0.000000316910     
14.274999618530     0.725785017014     0.000000320836     
14.380000114441     0.731073021889     0.000000324044     
14.484999656677     0.736361026764     0.000000326239     
14.590000152588     0.741483986378     0.000000329995     
14.694999694824     0.746771991253     0.000000334470     
14.800000190735     0.752059996128     0.000000337256     
14.904999732971     0.757348001003     0.000000340590     
15.010000228882     0.762636005878     0.000000345107     
15.114999771118     0.767759025097     0.000000348821     
15.220000267029     0.773046970367     0.000000352451     
15.324999809265     0.778334975243     0.000000357094     
15.430000305176     0.783622980118     0.000000361231     
15.534999847412     0.788910984993     0.000000364439     
15.640000343323     0.794198989868     0.000000369546     
15.744999885559     0.799486994743     0.000000374569     
15.850000381470     0.804774999619     0.000000377946     
15.954999923706     0.810063004494     0.000000382209     
16.059999465942     0.815186023712     0.000000387781     
16.165000915527     0.820474028587     0.000000391959     
16.270000457764     0.825761973858     0.000000396096     
16.375000000000     0.830884993076     0.000000401414     
16.479999542236     0.836172997952     0.000000405762     
16.584999084473     0.841625988483     0.000000409772     
16.690000534058     0.846749007702     0.000000415386     
16.795000076294     0.852037012577     0.000000420324     
16.899999618530     0.857325017452     0.000000423870     
17.004999160767     0.862613022327     0.000000428808     
17.110000610352     0.867901027203     0.000000434549     
17.215000152588     0.873023986816     0.000000438854     
17.319999694824     0.878477990627     0.000000443075     
17.424999237061     0.883599996567     0.000000448731     
17.530000686646     0.888888001442     0.000000453417     
17.635000228882     0.894176006317     0.000000457891     
17.739999771118     0.899299025536     0.000000463631     
17.844999313354     0.904586970806     0.000000468612     
17.950000762939     0.909874975681     0.000000472706     
18.055000305176     0.915162980556     0.000000478363     
18.159999847412     0.920450985432     0.000000484356     
18.264999389648     0.925738990307     0.000000488619     
18.370000839233     0.931028008461     0.000000493642     
18.475000381470     0.936150014400     0.000000499847     
18.579999923706     0.941438019276     0.000000505166     
18.684999465942     0.946726024151     0.000000510231     
18.790000915527     0.952014029026     0.000000516520     
18.895000457764     0.957302987576     0.000000522134     
19.000000000000     0.962590992451     0.000000527241     
19.104999542236     0.967878997326     0.000000533910     
19.209999084473     0.973001003265     0.000000540580     
19.315000534058     0.978289008141     0.000000545603     
19.420000076294     0.983578026295     0.000000552018     
19.524999618530     0.988865971565     0.000000559532     
19.629999160767     0.994153976440     0.000000565863     
19.735000610352     0.999441981316     0.000000572110     
19.840000152588     1.004729986191     0.000000579919     
19.944999694824     1.009853005409     0.000000586757     
20.049999237061     1.015141010284     0.000000593764     
20.155000686646     1.020429015160     0.000000602164     
20.260000228882     1.025717020035     0.000000610226     
20.364999771118     1.031005024910     0.000000617148     
20.469999313354     1.036128044128     0.000000625970     
20.575000762939     1.041416049004     0.000000635467     
20.680000305176     1.046704053879     0.000000643656     
20.784999847412     1.051992058754     0.000000652309     
20.889999389648     1.057114005089     0.000000662523     
20.995000839233     1.062402963638     0.000000672189     
21.100000381470     1.067855954170     0.000000681855     
21.204999923706     1.073143959045     0.000000692999     
21.309999465942     1.078266978264     0.000000703551     
21.415000915527     1.083554983139     0.000000713977     
21.520000457764     1.088842988014     0.000000726218     
21.625000000000     1.093966007233     0.000000738670     
21.729999542236     1.099254012108     0.000000749898     
21.834999084473     1.104542016983     0.000000762771     
21.940000534058     1.109830021858     0.000000776954     
22.045000076294     1.115118026733     0.000000790419     
22.149999618530     1.120241045952     0.000000804221     
22.254999160767     1.125529050827     0.000000819755     
22.360000610352     1.130817055702     0.000000834866     
22.465000152588     1.136104941368     0.000000850188     
22.569999694824     1.141392946243     0.000000867494     
22.674999237061     1.146680951118     0.000000884758     
22.780000686646     1.151968955994     0.000000901430     
22.885000228882     1.157091975212     0.000000920003     
22.989999771118     1.162379980087     0.000000940137     
23.094999313354     1.167667984962     0.000000959258     
23.200000762939     1.172955989838     0.000000979349     
23.305000305176     1.178079009056     0.000001001130     
23.409999847412     1.183367013931     0.000001023163     
23.450000762939     1.193446993828     0.000001062722     
23.555000305176     1.198238968849     0.000001078917     
23.659999847412     1.195430040359     0.000001013365     
23.764999389648     1.190142035484     0.000000938943     
23.870000839233     1.184854030609     0.000000871463     
23.975000381470     1.179566025734     0.000000807453     
24.079999923706     1.174443006516     0.000000749998     
24.184999465942     1.169155001640     0.000000697556     
24.290000915527     1.163866996765     0.000000648584     
24.395000457764     1.158578991890     0.000000602697     
24.500000000000     1.153290987015     0.000000561824     
24.604999542236     1.148002982140     0.000000523263     
24.709999084473     1.142714977264     0.000000486631     
24.815000534058     1.137426972389     0.000000454626     
24.920000076294     1.132303953171     0.000000424549     
25.024999618530     1.127015948296     0.000000394857     
25.129999160767     1.121727943420     0.000000368251     
25.235000610352     1.116440057755     0.000000345115     
25.340000152588     1.111152052879     0.000000321593     
25.444999694824     1.105864048004     0.000000299999     
25.465000152588     1.095288038254     0.000000270100     
25.569999694824     1.090000033379     0.000000252752     
25.674999237061     1.084712028503     0.000000237387     
25.780000686646     1.079422950745     0.000000222698     
25.885000228882     1.074301004410     0.000000207587     
25.989999771118     1.069012999535     0.000000195093     
26.094999313354     1.063724994659     0.000000183612     
26.200000762939     1.058601975441     0.000000171498     
26.305000305176     1.053313970566     0.000000160355     
26.409999847412     1.048025965691     0.000000151111     
26.514999389648     1.042737960815     0.000000141360     
26.620000839233     1.037449955940     0.000000132116     
26.725000381470     1.032160997391     0.000000124350     
26.829999923706     1.026872992516     0.000000116541     
26.934999465942     1.021751046181     0.000000108141     
27.040000915527     1.016463041306     0.000000101894     
27.145000457764     1.011175036430     0.000000095858     
27.250000000000     1.005885958672     0.000000088640     
27.354999542236     1.000597953796     0.000000082393     
27.459999084473     0.995310008526     0.000000077835     
27.565000534058     0.990022003651     0.000000072179     
27.670000076294     0.984899997711     0.000000066649     
27.774999618530     0.979610979557     0.000000062555     
27.879999160767     0.974322974682     0.000000057827     
27.985000610352     0.969035029411     0.000000052720     
28.090000152588     0.963747024536     0.000000049512     
28.194999694824     0.958459019661     0.000000045840     
28.299999237061     0.953336000443     0.000000041070     
28.405000686646     0.948047995567     0.000000037524     
28.510000228882     0.942759990692     0.000000035118     
28.614999771118     0.937471985817     0.000000031277     
28.719999313354     0.932183980942     0.000000027605     
28.825000762939     0.926895976067     0.000000025284     
28.930000305176     0.921607971191     0.000000022329     
28.979999542236     0.912518978119     0.000000018218     
29.084999084473     0.907230973244     0.000000015291     
29.190000534058     0.901943027973     0.000000013524     
29.295000076294     0.896820008755     0.000000011012     
29.399999618530     0.891532003880     0.000000007955     
29.504999160767     0.886243999004     0.000000006411     
29.610000610352     0.880955994129     0.000000004625     
29.715000152588     0.875832974911     0.000000001540     
29.819999694824     0.870545029640     -0.000000000499     
29.924999237061     0.865257024765     -0.000000001556     
30.030000686646     0.859969019890     -0.000000004025     
30.135000228882     0.854847013950     -0.000000006330     
30.239999771118     0.849557995796     -0.000000007501     
30.344999313354     0.844269990921     -0.000000009449     
30.450000762939     0.838981986046     -0.000000011807     
30.555000305176     0.833859980106     -0.000000012729     
30.659999847412     0.828405976295     -0.000000014288     
30.764999389648     0.823283016682     -0.000000016939     
30.870000839233     0.817995011806     -0.000000018175     
30.975000381470     0.812707006931     -0.000000018924     
31.079999923706     0.807585000992     -0.000000021279     
31.184999465942     0.802296996117     -0.000000023088     
31.290000915527     0.797007977962     -0.000000023875     
31.395000457764     0.791719973087     -0.000000025577     
31.500000000000     0.786432027817     -0.000000027509     
31.604999542236     0.781144022942     -0.000000028243     
31.709999084473     0.776022017002     -0.000000029683     
31.815000534058     0.770732998848     -0.000000031876     
31.920000076294     0.765444993973     -0.000000032671     
32.025001525879     0.760156989098     -0.000000033397     
32.130001068115     0.754868984222     -0.000000035686     
32.235000610352     0.749746978283     -0.000000037253     
32.340000152588     0.744458019733     -0.000000037707     
32.444999694824     0.739170014858     -0.000000039366     
32.549999237061     0.733882009983     -0.000000041090     
32.654998779297     0.728594005108     -0.000000041663     
32.759998321533     0.723471999168     -0.000000043122     
32.865001678467     0.718182981014     -0.000000045035     
32.970001220703     0.712894976139     -0.000000045611     
33.075000762939     0.707606971264     -0.000000046560     
33.180000305176     0.702319025993     -0.000000048861     
33.284999847412     0.697031021118     -0.000000049859     
33.389999389648     0.691908001900     -0.000000050332     
33.494998931885     0.686619997025     -0.000000052433     
33.599998474121     0.681331992149     -0.000000054004     
33.705001831055     0.676043987274     -0.000000054303     
33.810001373291     0.670755982399     -0.000000055840     
33.915000915527     0.665467977524     -0.000000057514     
34.020000457764     0.660345017910     -0.000000058041     
34.125000000000     0.655057013035     -0.000000059381     
34.229999542236     0.649769008160     -0.000000061697     
34.334999084473     0.644481003284     -0.000000062358     
34.439998626709     0.639192998409     -0.000000062957     
34.544998168945     0.634069979191     -0.000000065139     
34.650001525879     0.628947973251     -0.000000066867     
34.755001068115     0.623494029045     -0.000000067247     
34.860000610352     0.618206024170     -0.000000068918     
34.965000152588     0.612918019295     -0.000000070704     
35.069999694824     0.607795000076     -0.000000071434     
