
Cycle 1
Physical Cycle 1
Step 1

Time (s),          Potential (V),         Current (A)
0.104999996722     0.002318999963     -0.000000420344     
0.209999993443     0.007619999815     -0.000000378310     
0.314999997616     0.012755000032     -0.000000343918     
0.419999986887     0.018055999652     -0.000000309526     
0.449999988079     0.028161000460     -0.000000251711     
0.555000007153     0.033461999148     -0.000000226270     
0.660000026226     0.038598001003     -0.000000203527     
0.764999985695     0.043898999691     -0.000000183483     
0.795000016689     0.054003998637     -0.000000147970     
0.899999976158     0.059305001050     -0.000000131669     
1.004999995232     0.064606003463     -0.000000117553     
1.110000014305     0.069741003215     -0.000000105201     
1.215000033379     0.075042001903     -0.000000092807     
1.320000052452     0.080343000591     -0.000000081295     
1.424999952316     0.085643999279     -0.000000072052     
1.529999971390     0.090944997966     -0.000000063440     
1.634999990463     0.096079997718     -0.000000054743     
1.740000009537     0.101380996406     -0.000000047559     
1.845000028610     0.106682002544     -0.000000041215     
1.950000047684     0.111817002296     -0.000000034241     
2.055000066757     0.117118000984     -0.000000028275     
2.160000085831     0.122418999672     -0.000000024242     
2.265000104904     0.127719998360     -0.000000019620     
2.369999885559     0.133020997047     -0.000000014579     
2.464999914169     0.139648005366     -0.000000009784     
2.569999933243     0.144948005676     -0.000000005559     
2.674999952316     0.150249004364     -0.000000002806     
2.779999971390     0.155550003052     0.000000000015     
2.884999990463     0.160686001182     0.000000003572     
2.990000009537     0.165986999869     0.000000006003     
3.095000028610     0.171287998557     0.000000007774     
3.200000047684     0.176422998309     0.000000010811     
3.305000066757     0.181723996997     0.000000013344     
3.410000085831     0.187024995685     0.000000014573     
3.515000104904     0.192159995437     0.000000016272     
3.619999885559     0.197460994124     0.000000018665     
3.724999904633     0.202761992812     0.000000019761     
3.829999923706     0.208063006401     0.000000020037     
3.934999942780     0.213198006153     0.000000022783     
4.039999961853     0.218499004841     0.000000024163     
4.144999980927     0.223800003529     0.000000024520     
4.250000000000     0.228936001658     0.000000025877     
4.355000019073     0.234237000346     0.000000027618     
4.460000038147     0.239537999034     0.000000028073     
4.565000057220     0.244838997722     0.000000028570     
4.670000076294     0.250140011311     0.000000030136     
4.775000095367     0.255441009998     0.000000030572     
4.880000114441     0.260576009750     0.000000030576     
4.985000133514     0.265877008438     0.000000031823     
5.090000152588     0.271012008190     0.000000032862     
5.195000171661     0.276479005814     0.000000032498     
5.300000190735     0.281614005566     0.000000033147     
5.405000209808     0.286915004253     0.000000035043     
5.510000228882     0.292216002941     0.000000035414     
5.614999771118     0.297517001629     0.000000035744     
5.719999790192     0.302652001381     0.000000037280     
5.824999809265     0.307953000069     0.000000038122     
5.929999828339     0.313253998756     0.000000038057     
6.034999847412     0.318390011787     0.000000038877     
6.139999866486     0.323691010475     0.000000040568     
6.244999885559     0.328992009163     0.000000040848     
6.349999904633     0.334293007851     0.000000040947     
6.454999923706     0.339594006538     0.000000042604     
6.559999942780     0.344729006290     0.000000043211     
6.664999961853     0.350030004978     0.000000043370     
6.769999980927     0.355331003666     0.000000045118     
6.875000000000     0.360466003418     0.000000046749     
6.980000019073     0.365767002106     0.000000046942     
7.085000038147     0.371068000793     0.000000047784     
7.190000057220     0.376368999481     0.000000049680     
7.295000076294     0.381669998169     0.000000050526     
7.400000095367     0.386804997921     0.000000051375     
7.505000114441     0.392105996609     0.000000053321     
7.610000133514     0.397406995296     0.000000054784     
7.715000152588     0.402707993984     0.000000055217     
7.820000171661     0.407844007015     0.000000056847     
7.925000190735     0.413145005703     0.000000059164     
8.029999732971     0.418280005455     0.000000060287     
8.135000228882     0.423747003078     0.000000061633     
8.239999771118     0.428882002831     0.000000064052     
8.345000267029     0.434183001518     0.000000065630     
8.449999809265     0.439318001270     0.000000066745     
8.555000305176     0.444618999958     0.000000069164     
8.659999847412     0.449919998646     0.000000071663     
8.765000343323     0.455220997334     0.000000072846     
8.869999885559     0.460355997086     0.000000074757     
8.975000381470     0.465656995773     0.000000077628     
9.079999923706     0.470957994461     0.000000079384     
9.185000419617     0.476094007492     0.000000081253     
9.289999961853     0.481395006180     0.000000084249     
9.395000457764     0.486696004868     0.000000086577     
9.494999885559     0.493818998337     0.000000089908     
9.600000381470     0.498953998089     0.000000093059     
9.704999923706     0.504254996777     0.000000094950     
9.810000419617     0.509555995464     0.000000097050     
9.914999961853     0.514690995216     0.000000100579     
10.020000457764     0.519991993904     0.000000102932     
10.125000000000     0.525292992592     0.000000105075     
10.229999542236     0.530593991280     0.000000108730     
10.335000038147     0.535730004311     0.000000112049     
10.439999580383     0.541031002998     0.000000113898     
10.545000076294     0.546496987343     0.000000116838     
10.649999618530     0.551631987095     0.000000120830     
10.755000114441     0.556932985783     0.000000123645     
10.859999656677     0.562233984470     0.000000126375     
10.965000152588     0.567369997501     0.000000130409     
11.069999694824     0.572670996189     0.000000133518     
11.175000190735     0.577971994877     0.000000136206     
11.279999732971     0.583272993565     0.000000140282     
11.385000228882     0.588407993317     0.000000144819     
11.489999771118     0.593874990940     0.000000148012     
11.595000267029     0.599009990692     0.000000151625     
11.699999809265     0.604310989380     0.000000156457     
11.805000305176     0.609445989132     0.000000160364     
11.909999847412     0.614912986755     0.000000164523     
12.015000343323     0.620047986507     0.000000169859     
12.119999885559     0.625348985195     0.000000174901     
12.225000381470     0.630649983883     0.000000178850     
12.329999923706     0.635784983635     0.000000184017     
12.435000419617     0.641085982323     0.000000190319     
12.539999961853     0.646386981010     0.000000195655     
12.645000457764     0.651687979698     0.000000201411     
12.750000000000     0.656823992729     0.000000208343     
12.854999542236     0.662289977074     0.000000214813     
12.960000038147     0.667425990105     0.000000220737     
13.064999580383     0.672726988792     0.000000228299     
13.170000076294     0.678027987480     0.000000236324     
13.274999618530     0.683162987232     0.000000243172     
13.380000114441     0.688463985920     0.000000250524     
13.484999656677     0.693764984608     0.000000258843     
13.590000152588     0.699065983295     0.000000265775     
13.694999694824     0.704366981983     0.000000272875     
13.800000190735     0.709501981735     0.000000280984     
13.904999732971     0.714802980423     0.000000288462     
14.010000228882     0.720103979111     0.000000294176     
14.114999771118     0.725238978863     0.000000300856     
14.220000267029     0.730539977551     0.000000308712     
14.324999809265     0.735840976238     0.000000315224     
14.430000305176     0.741141974926     0.000000321862     
14.534999847412     0.746277987957     0.000000329425     
14.640000343323     0.751578986645     0.000000336441     
14.744999885559     0.756879985332     0.000000343037     
14.850000381470     0.762179970741     0.000000351188     
14.954999923706     0.767315983772     0.000000359800     
15.060000419617     0.772616982460     0.000000367110     
15.164999961853     0.777917981148     0.000000375555     
15.270000457764     0.783052980900     0.000000384966     
15.375000000000     0.788519978523     0.000000393663     
15.479999542236     0.793654978275     0.000000402864     
15.585000038147     0.798955976963     0.000000413157     
15.689999580383     0.804256975651     0.000000423156     
15.795000076294     0.809557974339     0.000000432021     
15.899999618530     0.814692974091     0.000000442482     
16.004999160767     0.819993972778     0.000000454036     
16.110000610352     0.825129985809     0.000000464329     
16.215000152588     0.830430984497     0.000000474916     
16.319999694824     0.835731029510     0.000000486722     
16.424999237061     0.841032028198     0.000000497477     
16.530000686646     0.846333026886     0.000000508106     
16.635000228882     0.851468980312     0.000000519786     
16.739999771118     0.856769979000     0.000000531844     
16.844999313354     0.862070977688     0.000000542473     
16.950000762939     0.867371976376     0.000000553943     
17.055000305176     0.872506976128     0.000000566253     
17.159999847412     0.877973973751     0.000000577680     
17.264999389648     0.883108973503     0.000000589150     
17.370000839233     0.888409972191     0.000000601796     
17.475000381470     0.893544971943     0.000000613307     
17.579999923706     0.898845970631     0.000000624189     
17.684999465942     0.904147028923     0.000000636456     
17.790000915527     0.909448027611     0.000000649312     
17.895000457764     0.914583027363     0.000000661034     
18.000000000000     0.920050024986     0.000000673050     
18.104999542236     0.925185024738     0.000000686536     
18.209999084473     0.930486023426     0.000000699140     
18.315000534058     0.935621976852     0.000000711492     
18.420000076294     0.940922975540     0.000000725734     
18.524999618530     0.946223974228     0.000000740145     
18.629999160767     0.951524972916     0.000000753295     
18.735000610352     0.956659972668     0.000000767831     
18.840000152588     0.961960971355     0.000000783628     
18.944999694824     0.967262029648     0.000000799089     
19.049999237061     0.972563028336     0.000000814844     
19.155000686646     0.977864027023     0.000000832069     
19.260000228882     0.982999026775     0.000000849043     
19.364999771118     0.988300025463     0.000000866184     
19.469999313354     0.993435025215     0.000000885384     
19.575000762939     0.998736023903     0.000000905256     
19.680000305176     1.004037022591     0.000000924750     
19.784999847412     1.009338021278     0.000000945253     
19.889999389648     1.014474034309     0.000000967310     
19.995000839233     1.019775032997     0.000000989409     
20.100000381470     1.024909973145     0.000001012138     
20.125000000000     1.035843014717     0.000001068903     
20.229999542236     1.041144013405     0.000001094729     
20.334999084473     1.046280026436     0.000001120555     
20.440000534058     1.051579952240     0.000001149466     
20.545000076294     1.056880950928     0.000001179532     
20.649999618530     1.062181949615     0.000001209213     
20.754999160767     1.067482948303     0.000001240821     
20.860000610352     1.072618961334     0.000001275128     
20.965000152588     1.077919960022     0.000001309435     
21.069999694824     1.083220958710     0.000001344898     
21.174999237061     1.088521957397     0.000001383830     
21.280000686646     1.093822956085     0.000001423533     
21.385000228882     1.098958015442     0.000001464007     
21.489999771118     1.104259014130     0.000001507565     
21.594999313354     1.109560012817     0.000001553822     
21.700000762939     1.114861011505     0.000001601234     
21.805000305176     1.119995951653     0.000001650959     
21.909999847412     1.125296950340     0.000001704539     
22.014999389648     1.130597949028     0.000001759661     
22.120000839233     1.135898947716     0.000001818253     
22.225000381470     1.141199946404     0.000001880698     
22.329999923706     1.146335005760     0.000001946228     
22.434999465942     1.151636004448     0.000002013685     
22.540000915527     1.156937003136     0.000002086153     
22.645000457764     1.162238001823     0.000002163246     
22.750000000000     1.167539000511     0.000002243038     
22.854999542236     1.172675013542     0.000002326685     
22.959999084473     1.177976012230     0.000002415728     
23.065000534058     1.183110952377     0.000002507855     
23.170000076294     1.188411951065     0.000002601909     
23.274999618530     1.193712949753     0.000002702902     
23.379999160767     1.198351025581     0.000002782693     
23.485000610352     1.195204019547     0.000002641612     
23.590000152588     1.189903020859     0.000002469308     
23.694999694824     1.184602022171     0.000002314350     
23.799999237061     1.179466009140     0.000002169799     
23.905000686646     1.174165010452     0.000002034500     
24.010000228882     1.168864965439     0.000001909994     
24.114999771118     1.163563966751     0.000001792812     
24.219999313354     1.158427953720     0.000001680640     
24.325000762939     1.153126955032     0.000001576179     
24.430000305176     1.147825956345     0.000001478655     
24.534999847412     1.142524957657     0.000001385372     
24.639999389648     1.137390017509     0.000001297485     
24.745000839233     1.132089018822     0.000001215381     
24.850000381470     1.126788020134     0.000001136745     
24.954999923706     1.121487021446     0.000001061579     
25.059999465942     1.116186022758     0.000000992966     
25.165000915527     1.111050963402     0.000000927821     
25.270000457764     1.105749964714     0.000000864990     
25.375000000000     1.100448966026     0.000000806785     
25.479999542236     1.095147967339     0.000000752819     
25.584999084473     1.090013027191     0.000000700781     
25.690000534058     1.084712028503     0.000000652597     
25.795000076294     1.079411029816     0.000000608269     
25.899999618530     1.074275016785     0.000000565482     
26.004999160767     1.068974018097     0.000000524236     
26.110000610352     1.063673019409     0.000000487617     
26.215000152588     1.058372020721     0.000000453310     
26.319999694824     1.053071022034     0.000000420160     
26.424999237061     1.047770023346     0.000000389323     
26.530000686646     1.042634963989     0.000000361954     
26.635000228882     1.037333965302     0.000000334972     
26.739999771118     1.032199025154     0.000000309531     
26.844999313354     1.026898026466     0.000000287559     
26.885000228882     1.017124056816     0.000000248886     
26.989999771118     1.011823058128     0.000000230022     
27.094999313354     1.006687998772     0.000000213385     
27.200000762939     1.001387000084     0.000000196873     
27.305000305176     0.996252000332     0.000000181371     
27.409999847412     0.990951001644     0.000000168304     
27.514999389648     0.985650002956     0.000000154902     
27.620000839233     0.980349004269     0.000000141626     
27.725000381470     0.975212991238     0.000000130829     
27.829999923706     0.969911992550     0.000000120746     
27.934999465942     0.964610993862     0.000000110032     
28.040000915527     0.959309995174     0.000000100285     
28.145000457764     0.954008996487     0.000000092219     
28.250000000000     0.948707997799     0.000000083522     
28.354999542236     0.943408012390     0.000000075203     
28.459999084473     0.938271999359     0.000000068775     
28.565000534058     0.932971000671     0.000000062179     
28.670000076294     0.927670001984     0.000000054365     
28.774999618530     0.922535002232     0.000000048147     
28.879999160767     0.917234003544     0.000000043147     
28.985000610352     0.911933004856     0.000000037182     
29.090000152588     0.906798005104     0.000000031426     
29.194999694824     0.901497006416     0.000000027014     
29.299999237061     0.896196007729     0.000000021847     
29.405000686646     0.890895009041     0.000000016343     
29.510000228882     0.885594010353     0.000000012688     
29.610000610352     0.879132986069     0.000000007182     
29.715000152588     0.873831987381     0.000000002745     
29.819999694824     0.868530988693     -0.000000000444     
29.924999237061     0.863395988941     -0.000000004160     
30.030000686646     0.858094990253     -0.000000008616     
30.135000228882     0.852793991566     -0.000000011782     
30.239999771118     0.847658991814     -0.000000014289     
30.344999313354     0.842357993126     -0.000000018285     
30.450000762939     0.837221980095     -0.000000021748     
30.555000305176     0.831920981407     -0.000000024042     
30.659999847412     0.826454997063     -0.000000027041     
30.764999389648     0.821318984032     -0.000000030291     
30.870000839233     0.816183984280     -0.000000032282     
30.975000381470     0.810882985592     -0.000000034353     
31.079999923706     0.805747985840     -0.000000037288     
31.184999465942     0.800446987152     -0.000000039301     
31.290000915527     0.795145988464     -0.000000040598     
31.395000457764     0.789844989777     -0.000000042877     
31.500000000000     0.784543991089     -0.000000044709     
31.604999542236     0.779408991337     -0.000000045312     
31.709999084473     0.774107992649     -0.000000046612     
31.815000534058     0.768971979618     -0.000000048106     
31.920000076294     0.763505995274     -0.000000048110     
32.025001525879     0.758204996586     -0.000000048258     
32.130001068115     0.753068983555     -0.000000049642     
32.235000610352     0.747767984867     -0.000000050291     
32.340000152588     0.742632985115     -0.000000049711     
32.444999694824     0.737331986427     -0.000000049836     
32.549999237061     0.732030987740     -0.000000050097     
32.654998779297     0.726729989052     -0.000000049187     
32.759998321533     0.721428990364     -0.000000048789     
32.865001678467     0.716127991676     -0.000000049403     
32.970001220703     0.710992991924     -0.000000048778     
33.075000762939     0.705691993237     -0.000000047746     
33.180000305176     0.700390994549     -0.000000047996     
33.284999847412     0.695089995861     -0.000000047970     
33.389999389648     0.689788997173     -0.000000047037     
33.494998931885     0.684653997421     -0.000000046908     
33.599998474121     0.679352998734     -0.000000047098     
33.705001831055     0.674052000046     -0.000000046298     
33.810001373291     0.668751001358     -0.000000045880     
33.915000915527     0.663450002670     -0.000000046628     
34.020000457764     0.658149003983     -0.000000046392     
34.125000000000     0.653014004230     -0.000000045573     
34.229999542236     0.647713005543     -0.000000046040     
34.334999084473     0.642412006855     -0.000000046408     
34.439998626709     0.637111008167     -0.000000045736     
34.544998168945     0.631974995136     -0.000000045899     
34.650001525879     0.626673996449     -0.000000046692     
34.755001068115     0.621372997761     -0.000000046438     
34.860000610352     0.616237998009     -0.000000046047     
34.965000152588     0.610771000385     -0.000000047045     
35.069999694824     0.605636000633     -0.000000047602     
