
Cycle 1
Physical Cycle 1
Step 1

Time (s),          Potential (V),         Current (A)
0.104999996722     0.002485000063     -0.000000634337     
0.209999993443     0.007619999815     -0.000000580839     
0.314999997616     0.012920999900     -0.000000531162     
0.419999986887     0.018055999652     -0.000000481485     
0.449999988079     0.028161000460     -0.000000397418     
0.555000007153     0.033628001809     -0.000000360798     
0.660000026226     0.038763001561     -0.000000326877     
0.764999985695     0.044064000249     -0.000000294498     
0.870000004768     0.049364998937     -0.000000265202     
0.889999985695     0.059967000037     -0.000000214393     
0.995000004768     0.065268002450     -0.000000191328     
1.100000023842     0.070569001138     -0.000000171245     
1.205000042915     0.075704999268     -0.000000153054     
1.309999942780     0.081004999578     -0.000000135072     
1.414999961853     0.086140997708     -0.000000119653     
1.519999980927     0.091441996396     -0.000000106629     
1.625000000000     0.096743002534     -0.000000092975     
1.730000019073     0.102044001222     -0.000000079783     
1.835000038147     0.107344999909     -0.000000069406     
1.940000057220     0.112479999661     -0.000000059785     
2.045000076294     0.117780998349     -0.000000049491     
2.150000095367     0.123081997037     -0.000000041215     
2.255000114441     0.128382995725     -0.000000034367     
2.359999895096     0.133683994412     -0.000000025754     
2.464999914169     0.138818994164     -0.000000018276     
2.569999933243     0.144119992852     -0.000000013066     
2.674999952316     0.149421006441     -0.000000007436     
2.724999904633     0.158366993070     0.000000001972     
2.829999923706     0.163668006659     0.000000007963     
2.934999942780     0.168803006411     0.000000012332     
3.039999961853     0.173938006163     0.000000016135     
3.144999980927     0.179239004850     0.000000021395     
3.250000000000     0.184540003538     0.000000025741     
3.355000019073     0.189841002226     0.000000028630     
3.460000038147     0.194976001978     0.000000032805     
3.565000057220     0.200112000108     0.000000037436     
3.670000076294     0.205577999353     0.000000040458     
3.775000095367     0.210713997483     0.000000043423     
3.880000114441     0.215848997235     0.000000047739     
3.984999895096     0.221315994859     0.000000051034     
4.090000152588     0.226450994611     0.000000053544     
4.195000171661     0.231751993299     0.000000057431     
4.300000190735     0.236886993051     0.000000061307     
4.405000209808     0.242188006639     0.000000063559     
4.510000228882     0.247489005327     0.000000066513     
4.614999771118     0.252790004015     0.000000070521     
4.719999790192     0.257925003767     0.000000073328     
4.824999809265     0.263226002455     0.000000075872     
4.929999828339     0.268361985683     0.000000079786     
5.034999847412     0.273663014174     0.000000083051     
5.074999809265     0.283767998219     0.000000089656     
5.179999828339     0.288902997971     0.000000092933     
5.284999847412     0.294203996658     0.000000094950     
5.389999866486     0.299504995346     0.000000097386     
5.494999885559     0.304639995098     0.000000101420     
5.599999904633     0.309940993786     0.000000104108     
5.704999923706     0.315241992474     0.000000106335     
5.809999942780     0.320542991161     0.000000110284     
5.914999961853     0.325843989849     0.000000113982     
6.019999980927     0.331144988537     0.000000115578     
6.125000000000     0.336279988289     0.000000118393     
6.230000019073     0.341580986977     0.000000122468     
6.335000038147     0.346881985664     0.000000125157     
6.440000057220     0.352183014154     0.000000128014     
6.545000076294     0.357318997383     0.000000132005     
6.650000095367     0.362619996071     0.000000135072     
6.755000114441     0.367920994759     0.000000137047     
6.860000133514     0.373221993446     0.000000140660     
6.965000152588     0.378522992134     0.000000145113     
7.070000171661     0.383657991886     0.000000147718     
7.175000190735     0.388958990574     0.000000150617     
7.280000209808     0.394259989262     0.000000155112     
7.385000228882     0.399560987949     0.000000158305     
7.489999771118     0.404861986637     0.000000160994     
7.594999790192     0.409996986389     0.000000165700     
7.699999809265     0.415298014879     0.000000170489     
7.804999828339     0.420599013567     0.000000173304     
7.909999847412     0.425900012255     0.000000176917     
8.015000343323     0.431035012007     0.000000182463     
8.119999885559     0.436336010695     0.000000186496     
8.225000381470     0.441637009382     0.000000190697     
8.329999923706     0.446938008070     0.000000196537     
8.435000419617     0.452073991299     0.000000201789     
8.539999961853     0.457374989986     0.000000205738     
8.645000457764     0.462675988674     0.000000211326     
8.750000000000     0.467976987362     0.000000218216     
8.854999542236     0.473277002573     0.000000223804     
8.960000038147     0.478412985802     0.000000229686     
9.064999580383     0.483714014292     0.000000237248     
9.170000076294     0.489015012980     0.000000243634     
9.274999618530     0.494316011667     0.000000249600     
9.380000114441     0.499617010355     0.000000257750     
9.484999656677     0.504751980305     0.000000266489     
9.590000152588     0.510052978992     0.000000273169     
9.694999694824     0.515187978745     0.000000280858     
9.800000190735     0.520488977432     0.000000290142     
9.904999732971     0.525789976120     0.000000298503     
10.010000228882     0.531090974808     0.000000306444     
10.114999771118     0.536226987839     0.000000316401     
10.220000267029     0.541692972183     0.000000326316     
10.324999809265     0.546993970871     0.000000334298     
10.430000305176     0.552128970623     0.000000343625     
10.534999847412     0.557430028915     0.000000354465     
10.640000343323     0.562565982342     0.000000364128     
10.744999885559     0.567866981030     0.000000373791     
10.850000381470     0.573167979717     0.000000384798     
10.954999923706     0.578468978405     0.000000395301     
11.060000419617     0.583603978157     0.000000404586     
11.164999961853     0.588904976845     0.000000415804     
11.270000457764     0.594205975533     0.000000427693     
11.375000000000     0.599506974220     0.000000438071     
11.479999542236     0.604641973972     0.000000448574     
11.585000038147     0.609942972660     0.000000460842     
11.689999580383     0.615243971348     0.000000471849     
11.795000076294     0.620378971100     0.000000482394     
11.899999618530     0.625680029392     0.000000494956     
12.005000114441     0.630981028080     0.000000507518     
12.109999656677     0.636282026768     0.000000518106     
12.215000152588     0.641417980194     0.000000529701     
12.319999694824     0.646718978882     0.000000542641     
12.425000190735     0.652019977570     0.000000554447     
12.529999732971     0.657320976257     0.000000566042     
12.635000228882     0.662621974945     0.000000579277     
12.739999771118     0.667756974697     0.000000591881     
12.845000267029     0.673057973385     0.000000602846     
12.949999809265     0.678358972073     0.000000615198     
13.055000305176     0.683659970760     0.000000628852     
13.159999847412     0.688794970512     0.000000640994     
13.265000343323     0.694096028805     0.000000653178     
13.369999885559     0.699397027493     0.000000666790     
13.475000381470     0.704532027245     0.000000679352     
13.579999923706     0.709833025932     0.000000690989     
13.685000419617     0.715134024620     0.000000704686     
13.789999961853     0.720435023308     0.000000718466     
13.895000457764     0.725736021996     0.000000730608     
14.000000000000     0.730871975422     0.000000743212     
14.104999542236     0.736172974110     0.000000757412     
14.210000038147     0.741473972797     0.000000770226     
14.314999580383     0.746774971485     0.000000782872     
14.420000076294     0.751909971237     0.000000797451     
14.524999618530     0.757211029530     0.000000811651     
14.630000114441     0.762512028217     0.000000823751     
14.734999656677     0.767647027969     0.000000837405     
14.840000152588     0.772948026657     0.000000852572     
14.944999694824     0.778249025345     0.000000866310     
15.050000190735     0.783550024033     0.000000880048     
15.154999732971     0.788685023785     0.000000895425     
15.260000228882     0.793986022472     0.000000910004     
15.364999771118     0.799287021160     0.000000923490     
15.470000267029     0.804422974586     0.000000938657     
15.574999809265     0.809723973274     0.000000955000     
15.680000305176     0.815024971962     0.000000969788     
15.784999847412     0.820325970650     0.000000985165     
15.890000343323     0.825460970402     0.000001001928     
15.994999885559     0.830762028694     0.000001017977     
16.014999389648     0.841861009598     0.000001058881     
16.120000839233     0.847162008286     0.000001075841     
16.225000381470     0.852463006973     0.000001092031     
16.329999923706     0.857598006725     0.000001110148     
16.434999465942     0.862899005413     0.000001130192     
16.540000915527     0.868200004101     0.000001149080     
16.645000457764     0.873501002789     0.000001168739     
16.750000000000     0.878802001476     0.000001190325     
16.854999542236     0.884103000164     0.000001211911     
16.959999084473     0.889237999916     0.000001232727     
17.065000534058     0.894538998604     0.000001256240     
17.170000076294     0.899839997292     0.000001282067     
17.274999618530     0.904974997044     0.000001306737     
17.379999160767     0.910275995731     0.000001332948     
17.485000610352     0.915576994419     0.000001361473     
17.590000152588     0.920713007450     0.000001390383     
17.694999694824     0.926178991795     0.000001420064     
17.799999237061     0.931315004826     0.000001453214     
17.905000686646     0.936616003513     0.000001487906     
18.010000228882     0.941917002201     0.000001522213     
18.114999771118     0.947218000889     0.000001559218     
18.219999313354     0.952353000641     0.000001599307     
18.325000762939     0.957819998264     0.000001639781     
18.430000305176     0.962954998016     0.000001682182     
18.534999847412     0.968255996704     0.000001728053     
18.639999389648     0.973556995392     0.000001775080     
18.745000839233     0.978857994080     0.000001821722     
18.850000381470     0.983992993832     0.000001872218     
18.954999923706     0.989293992519     0.000001925413     
19.059999465942     0.994428992271     0.000001978607     
19.165000915527     0.999729990959     0.000002033729     
19.270000457764     1.005030989647     0.000002091935     
19.375000000000     1.010331988335     0.000002150141     
19.479999542236     1.015632987022     0.000002209117     
19.584999084473     1.020769000053     0.000002270792     
19.690000534058     1.026069998741     0.000002334780     
19.795000076294     1.031370997429     0.000002397996     
19.899999618530     1.036671042442     0.000002462755     
20.004999160767     1.041807055473     0.000002529826     
20.110000610352     1.047108054161     0.000002596898     
20.215000152588     1.052409052849     0.000002663969     
20.319999694824     1.057710051537     0.000002733739     
20.424999237061     1.062844991684     0.000002803509     
20.530000686646     1.068145990372     0.000002872508     
20.635000228882     1.073613047600     0.000002943434     
20.739999771118     1.078747987747     0.000003015516     
20.844999313354     1.084048986435     0.000003086828     
20.950000762939     1.089184045792     0.000003158910     
21.055000305176     1.094485044479     0.000003232535     
21.159999847412     1.099786043167     0.000003305774     
21.264999389648     1.104922056198     0.000003377471     
21.370000839233     1.110221982002     0.000003451866     
21.475000381470     1.115522980690     0.000003527418     
21.579999923706     1.120823979378     0.000003600657     
21.684999465942     1.126124978065     0.000003674666     
21.790000915527     1.131260991096     0.000003750218     
21.895000457764     1.136561989784     0.000003825384     
22.000000000000     1.141862988472     0.000003899780     
22.104999542236     1.147163987160     0.000003976102     
22.209999084473     1.152464985847     0.000004052811     
22.315000534058     1.157600045204     0.000004127977     
22.420000076294     1.162901043892     0.000004204299     
22.524999618530     1.168202042580     0.000004282549     
22.629999160767     1.173336982727     0.000004359258     
22.735000610352     1.178804039955     0.000004436737     
22.840000152588     1.183938980103     0.000004515758     
22.944999694824     1.189239978790     0.000004593622     
23.049999237061     1.194375038147     0.000004671487     
23.155000686646     1.198351025581     0.000004706179     
23.260000228882     1.194540977478     0.000004512674     
23.364999771118     1.189239978790     0.000004309147     
23.469999313354     1.183938980103     0.000004121809     
23.575000762939     1.178637981415     0.000003947963     
23.680000305176     1.173503041267     0.000003782212     
23.784999847412     1.168202042580     0.000003624170     
23.889999389648     1.162901043892     0.000003475765     
23.995000839233     1.157600045204     0.000003333527     
24.100000381470     1.152464985847     0.000003194759     
24.204999923706     1.147163987160     0.000003062543     
24.309999465942     1.141862988472     0.000002936495     
24.415000915527     1.136561989784     0.000002813916     
24.520000457764     1.131425976753     0.000002694807     
24.625000000000     1.125959992409     0.000002581479     
24.729999542236     1.120823979378     0.000002471235     
24.834999084473     1.115522980690     0.000002362919     
24.940000534058     1.110221982002     0.000002259228     
25.045000076294     1.105087041855     0.000002159777     
25.149999618530     1.099786043167     0.000002062254     
25.254999160767     1.094485044479     0.000001967814     
25.360000610352     1.089184045792     0.000001877615     
25.465000152588     1.084048986435     0.000001788572     
25.569999694824     1.078747987747     0.000001702227     
25.674999237061     1.073446989059     0.000001620122     
25.780000686646     1.068145990372     0.000001540716     
25.885000228882     1.063011050224     0.000001462466     
25.989999771118     1.057710051537     0.000001387299     
26.094999313354     1.052409052849     0.000001315988     
26.200000762939     1.047273039818     0.000001246218     
26.305000305176     1.041807055473     0.000001178761     
26.409999847412     1.036671042442     0.000001115930     
26.514999389648     1.031370997429     0.000001054640     
26.620000839233     1.026069998741     0.000000994122     
26.725000381470     1.020769000053     0.000000937458     
26.829999923706     1.015632987022     0.000000885420     
26.934999465942     1.010331988335     0.000000834153     
27.040000915527     1.005030989647     0.000000784813     
27.145000457764     0.999729990959     0.000000740099     
27.250000000000     0.994594991207     0.000000696541     
27.354999542236     0.989293992519     0.000000654525     
27.459999084473     0.983992993832     0.000000616749     
27.565000534058     0.978691995144     0.000000581671     
27.670000076294     0.973556995392     0.000000547750     
27.774999618530     0.968255996704     0.000000515756     
27.879999160767     0.962954998016     0.000000488002     
27.985000610352     0.957819998264     0.000000460249     
28.090000152588     0.952518999577     0.000000434808     
28.194999694824     0.947218000889     0.000000412836     
28.299999237061     0.941751003265     0.000000392021     
28.405000686646     0.936616003513     0.000000371206     
28.510000228882     0.931315004826     0.000000353474     
28.614999771118     0.926178991795     0.000000337670     
28.719999313354     0.920877993107     0.000000322637     
28.825000762939     0.915576994419     0.000000307989     
28.920000076294     0.908619999886     0.000000291697     
29.024999618530     0.903485000134     0.000000280059     
29.129999160767     0.898018002510     0.000000270438     
29.235000610352     0.892883002758     0.000000260397     
29.340000152588     0.887582004070     0.000000250776     
29.444999694824     0.882281005383     0.000000243466     
29.549999237061     0.877144992352     0.000000235862     
29.655000686646     0.871679008007     0.000000226997     
29.760000228882     0.866542994976     0.000000220401     
29.864999771118     0.861241996288     0.000000214813     
29.969999313354     0.856106996536     0.000000208343     
30.075000762939     0.850639998913     0.000000201999     
30.180000305176     0.845504999161     0.000000197714     
30.284999847412     0.840204000473     0.000000191874     
30.389999389648     0.834903001785     0.000000185698     
30.495000839233     0.829768002033     0.000000181623     
30.600000381470     0.824467003345     0.000000178052     
30.704999923706     0.819166004658     0.000000172590     
30.809999465942     0.813865005970     0.000000167716     
30.915000915527     0.808730006218     0.000000164355     
31.020000457764     0.803429007530     0.000000159902     
31.125000000000     0.798128008842     0.000000155070     
31.229999542236     0.792827010155     0.000000152297     
31.334999084473     0.787526011467     0.000000148852     
31.440000534058     0.782389998436     0.000000143811     
31.545000076294     0.777088999748     0.000000139988     
31.649999618530     0.771789014339     0.000000137425     
31.754999160767     0.766488015652     0.000000133476     
31.860000610352     0.761352002621     0.000000129610     
31.965000152588     0.756051003933     0.000000127174     
32.069999694824     0.750750005245     0.000000123603     
32.174999237061     0.745449006557     0.000000118897     
32.279998779297     0.740148007870     0.000000116124     
32.384998321533     0.734847009182     0.000000114066     
32.490001678467     0.729712009430     0.000000110116     
32.595001220703     0.724411010742     0.000000106377     
32.700000762939     0.719110012054     0.000000104319     
32.805000305176     0.713975012302     0.000000100663     
32.909999847412     0.708674013615     0.000000096630     
33.014999389648     0.703373014927     0.000000094656     
33.119998931885     0.698072016239     0.000000092429     
33.224998474121     0.692937016487     0.000000088101     
33.330001831055     0.687636017799     0.000000084824     
33.435001373291     0.682335019112     0.000000082808     
33.540000915527     0.677034020424     0.000000079489     
33.645000457764     0.671733021736     0.000000076086     
33.750000000000     0.666432023048     0.000000074237     
33.854999542236     0.661131024361     0.000000071506     
33.959999084473     0.655995011330     0.000000067221     
34.064998626709     0.650694012642     0.000000064532     
34.169998168945     0.645393013954     0.000000062768     
34.275001525879     0.640258014202     0.000000059491     
34.380001068115     0.634957015514     0.000000056172     
34.485000610352     0.629656016827     0.000000054365     
34.590000152588     0.624355018139     0.000000051004     
34.694999694824     0.619220018387     0.000000047181     
34.799999237061     0.613919019699     0.000000045206     
34.904998779297     0.608618021011     0.000000043316     
35.009998321533     0.603317022324     0.000000039534     
35.115001678467     0.598016023636     0.000000036299     
