
Cycle 1
Physical Cycle 1
Step 1

Time (s),          Potential (V),         Current (A)
0.104999996722     0.001983999973     -0.000001783979     
0.209999993443     0.007275000215     -0.000001696304     
0.314999997616     0.012567000464     -0.000001612442     
0.419999986887     0.017858000472     -0.000001540016     
0.449999988079     0.027944000438     -0.000001489156     
0.555000007153     0.033234998584     -0.000001427732     
0.660000026226     0.038527000695     -0.000001368227     
0.764999985695     0.043818000704     -0.000001311793     
0.870000004768     0.048944000155     -0.000001258815     
0.975000023842     0.054235000163     -0.000001206988     
1.080000042915     0.059360999614     -0.000001156697     
1.184999942780     0.064816996455     -0.000001110245     
1.289999961853     0.070109002292     -0.000001064560     
1.394999980927     0.075234003365     -0.000001019644     
1.500000000000     0.080526001751     -0.000000977031     
1.605000019073     0.085817001760     -0.000000935953     
1.710000038147     0.091108001769     -0.000000894876     
1.815000057220     0.096399001777     -0.000000855718     
1.919999957085     0.101691000164     -0.000000818863     
2.025000095367     0.106816001236     -0.000000781624     
2.130000114441     0.112107999623     -0.000000744386     
2.234999895096     0.117398999631     -0.000000709835     
2.339999914169     0.122689999640     -0.000000676819     
2.444999933243     0.127981007099     -0.000000642652     
2.549999952316     0.133273005486     -0.000000610404     
2.654999971390     0.138398006558     -0.000000580076     
2.759999990463     0.143690004945     -0.000000548596     
2.865000009537     0.148981004953     -0.000000518268     
2.970000028610     0.154272004962     -0.000000490627     
3.075000047684     0.159563004971     -0.000000462986     
3.180000066757     0.164689004421     -0.000000434577     
3.285000085831     0.170146003366     -0.000000408472     
3.390000104904     0.175272002816     -0.000000383134     
3.494999885559     0.180563002825     -0.000000357413     
3.599999904633     0.185854002833     -0.000000333611     
3.704999923706     0.191145002842     -0.000000311345     
3.809999942780     0.196271002293     -0.000000288310     
3.859999895096     0.205531001091     -0.000000258682     
3.964999914169     0.210822001100     -0.000000238202     
4.070000171661     0.215948000550     -0.000000219779     
4.175000190735     0.221239000559     -0.000000200936     
4.280000209808     0.226530000567     -0.000000181841     
4.385000228882     0.231821000576     -0.000000165223     
4.489999771118     0.237112998962     -0.000000149359     
4.594999790192     0.242238000035     -0.000000132740     
4.699999809265     0.247529998422     -0.000000117716     
4.804999828339     0.252820998430     -0.000000104119     
4.909999847412     0.258112013340     -0.000000089473     
5.014999866486     0.263402998447     -0.000000075750     
5.119999885559     0.268528997898     -0.000000064419     
5.224999904633     0.273820012808     -0.000000052542     
5.329999923706     0.279112011194     -0.000000039826     
5.434999942780     0.284238010645     -0.000000029209     
5.539999961853     0.289528995752     -0.000000019431     
5.644999980927     0.294820010662     -0.000000008603     
5.750000000000     0.300110995770     0.000000001217     
5.855000019073     0.305402010679     0.000000009442     
5.960000038147     0.311520010233     0.000000018730     
6.065000057220     0.316646009684     0.000000028224     
6.170000076294     0.321936994791     0.000000035743     
6.275000095367     0.327062994242     0.000000042811     
6.380000114441     0.332354992628     0.000000051154     
6.485000133514     0.337480008602     0.000000058470     
6.590000152588     0.342772006989     0.000000064681     
6.695000171661     0.348062992096     0.000000072020     
6.800000190735     0.353188991547     0.000000079237     
6.855000019073     0.362448006868     0.000000092452     
6.960000038147     0.367740005255     0.000000097866     
7.065000057220     0.373030990362     0.000000103028     
7.170000076294     0.378322005272     0.000000109533     
7.275000095367     0.383448004723     0.000000115576     
7.380000114441     0.388738989830     0.000000119773     
7.485000133514     0.394030004740     0.000000125438     
7.590000152588     0.399320989847     0.000000131901     
7.695000171661     0.404612988234     0.000000136433     
7.800000190735     0.409904003143     0.000000140672     
7.905000209808     0.415030002594     0.000000146547     
8.010000228882     0.420320987701     0.000000151499     
8.114999771118     0.425612002611     0.000000155402     
8.220000267029     0.430902987719     0.000000160774     
8.324999809265     0.436194986105     0.000000166020     
8.430000305176     0.441320002079     0.000000169251     
8.534999847412     0.446612000465     0.000000173658     
8.640000343323     0.452068001032     0.000000179197     
8.744999885559     0.457194000483     0.000000183100     
8.850000381470     0.462484985590     0.000000186667     
8.954999923706     0.467777013779     0.000000191619     
9.060000419617     0.472901999950     0.000000195732     
9.164999961853     0.478359013796     0.000000198712     
9.270000457764     0.483485013247     0.000000203076     
9.375000000000     0.488775998354     0.000000207986     
9.479999542236     0.494067013264     0.000000210714     
9.585000038147     0.499359011650     0.000000213736     
9.689999580383     0.504649996758     0.000000218436     
9.795000076294     0.509775996208     0.000000222003     
9.899999618530     0.515066981316     0.000000224689     
10.005000114441     0.520358026028     0.000000228886     
10.109999656677     0.525649011135     0.000000232579     
10.215000152588     0.530939996243     0.000000234971     
10.319999694824     0.536231994629     0.000000238496     
10.425000190735     0.541522979736     0.000000242945     
10.529999732971     0.546648979187     0.000000245714     
10.635000228882     0.551940023899     0.000000248442     
10.739999771118     0.557231009007     0.000000252681     
10.845000267029     0.562521994114     0.000000256038     
10.949999809265     0.567647993565     0.000000258472     
11.055000305176     0.572938978672     0.000000262543     
11.159999847412     0.578230977058     0.000000266530     
11.265000343323     0.583522021770     0.000000268460     
11.369999885559     0.588813006878     0.000000271734     
11.475000381470     0.594103991985     0.000000276476     
11.579999923706     0.599395990372     0.000000279540     
11.685000419617     0.604686975479     0.000000282309     
11.789999961853     0.609812974930     0.000000286548     
11.895000457764     0.615104019642     0.000000290115     
12.000000000000     0.620395004749     0.000000292465     
12.104999542236     0.625685989857     0.000000296200     
12.210000038147     0.630977988243     0.000000300523     
12.314999580383     0.636268973351     0.000000303125     
12.420000076294     0.641394972801     0.000000305811     
12.524999618530     0.646686017513     0.000000310259     
12.630000114441     0.651977002621     0.000000313532     
12.734999656677     0.657267987728     0.000000316302     
12.840000152588     0.662558972836     0.000000320583     
12.944999694824     0.667850971222     0.000000324486     
13.050000190735     0.672976970673     0.000000326920     
13.154999732971     0.678268015385     0.000000330739     
13.260000228882     0.683559000492     0.000000335607     
13.364999771118     0.688849985600     0.000000338712     
13.470000267029     0.694140970707     0.000000341776     
13.574999809265     0.699433028698     0.000000346854     
13.680000305176     0.704724013805     0.000000351051     
13.784999847412     0.709850013256     0.000000354324     
13.890000343323     0.715140998363     0.000000359906     
13.994999885559     0.720431983471     0.000000365865     
14.100000381470     0.725723028183     0.000000370523     
14.204999923706     0.731015026569     0.000000376860     
14.310000419617     0.736140012741     0.000000385505     
14.414999961853     0.741432011127     0.000000392891     
14.520000457764     0.746722996235     0.000000399438     
14.625000000000     0.752013981342     0.000000408125     
14.729999542236     0.757139980793     0.000000420547     
14.835000038147     0.762597024441     0.000000436998     
14.939999580383     0.767722010612     0.000000460793     
15.045000076294     0.773014008999     0.000000489582     
15.149999618530     0.778304994106     0.000000516147     
15.255000114441     0.783430993557     0.000000537760     
15.359999656677     0.788721978664     0.000000555386     
15.465000152588     0.794013023376     0.000000568983     
15.569999694824     0.799304008484     0.000000581279     
15.675000190735     0.804430007935     0.000000595002     
15.779999732971     0.809720993042     0.000000606501     
15.885000228882     0.815012991428     0.000000613258     
15.989999771118     0.820303976536     0.000000618504     
16.094999313354     0.825595021248     0.000000622113     
16.200000762939     0.830886006355     0.000000621945     
16.305000305176     0.836176991463     0.000000620518     
16.409999847412     0.841302990913     0.000000620854     
16.514999389648     0.846594989300     0.000000620770     
16.620000839233     0.851885974407     0.000000619805     
16.725000381470     0.857177019119     0.000000621064     
16.829999923706     0.862468004227     0.000000622742     
16.934999465942     0.867758989334     0.000000622700     
17.040000915527     0.873050987720     0.000000624085     
17.145000457764     0.878176987171     0.000000627107     
17.250000000000     0.883467972279     0.000000628995     
17.354999542236     0.888759016991     0.000000630632     
17.459999084473     0.894050002098     0.000000634199     
17.565000534058     0.899340987206     0.000000637389     
17.670000076294     0.904632985592     0.000000639361     
17.774999618530     0.909757971764     0.000000642970     
17.879999160767     0.915050029755     0.000000647754     
17.985000610352     0.920341014862     0.000000650608     
18.090000152588     0.925631999969     0.000000653546     
18.194999694824     0.930757999420     0.000000658960     
18.299999237061     0.936048984528     0.000000663324     
18.405000686646     0.941340029240     0.000000666765     
18.510000228882     0.946632027626     0.000000672389     
18.614999771118     0.951923012733     0.000000677845     
18.719999313354     0.957049012184     0.000000681831     
18.825000762939     0.962339997292     0.000000687245     
18.930000305176     0.967630982399     0.000000694253     
19.034999847412     0.972922027111     0.000000699835     
19.139999389648     0.978214025497     0.000000705542     
19.245000839233     0.983505010605     0.000000712971     
19.350000381470     0.988795995712     0.000000719895     
19.454999923706     0.994086980820     0.000000726358     
19.559999465942     0.999212980270     0.000000734919     
19.665000915527     1.004503965378     0.000000743900     
19.770000457764     1.009796023369     0.000000751580     
19.875000000000     1.014920949936     0.000000760603     
19.979999542236     1.020213007927     0.000000771724     
20.084999084473     1.025503993034     0.000000781880     
20.190000534058     1.030794978142     0.000000792287     
20.295000076294     1.036085963249     0.000000804668     
20.399999618530     1.041376948357     0.000000817342     
20.504999160767     1.046502947807     0.000000829344     
20.610000610352     1.051795005798     0.000000843613     
20.715000152588     1.057085990906     0.000000859518     
20.819999694824     1.062376976013     0.000000874710     
20.924999237061     1.067667961121     0.000000890741     
21.030000686646     1.072958946228     0.000000909458     
21.135000228882     1.078084945679     0.000000928343     
21.239999771118     1.083541989326     0.000000947438     
21.344999313354     1.088667988777     0.000000968673     
21.450000762939     1.093793988228     0.000000990370     
21.555000305176     1.099084973335     0.000001012192     
21.600000381470     1.109006047249     0.000001071854     
21.704999923706     1.114297032356     0.000001099879     
21.809999465942     1.119588017464     0.000001126752     
21.915000915527     1.124714016914     0.000001154777     
22.020000457764     1.130005002022     0.000001185489     
22.125000000000     1.135296940804     0.000001216969     
22.229999542236     1.140588045120     0.000001248833     
22.334999084473     1.145879030228     0.000001282617     
22.440000534058     1.151005029678     0.000001317552     
22.545000076294     1.156296014786     0.000001350951     
22.649999618530     1.161586999893     0.000001388574     
22.754999160767     1.166877985001     0.000001428883     
22.860000610352     1.172170042992     0.000001467657     
22.965000152588     1.177461028099     0.000001507199     
23.069999694824     1.182587027550     0.000001550196     
23.174999237061     1.187878012657     0.000001593577     
23.280000686646     1.193168997765     0.000001635039     
23.385000228882     1.197963953018     0.000001670742     
23.489999771118     1.195152997971     0.000001586283     
23.594999313354     1.189862012863     0.000001478791     
23.700000762939     1.184571027756     0.000001378208     
23.805000305176     1.179280042648     0.000001286456     
23.909999847412     1.173989057541     0.000001202381     
24.014999389648     1.168863058090     0.000001123681     
24.120000839233     1.163571000099     0.000001049972     
24.225000381470     1.158280014992     0.000000982021     
24.329999923706     1.152989029884     0.000000917142     
24.434999465942     1.147863030434     0.000000858789     
24.540000915527     1.142572045326     0.000000805426     
24.645000457764     1.137280941010     0.000000754367     
24.750000000000     1.131989955902     0.000000707147     
24.854999542236     1.126698017120     0.000000665302     
24.959999084473     1.121407032013     0.000000624992     
25.065000534058     1.116281032562     0.000000587754     
25.170000076294     1.110990047455     0.000000555122     
25.274999618530     1.105698943138     0.000000524794     
25.379999160767     1.100407958031     0.000000494082     
25.485000610352     1.095116019249     0.000000468360     
25.590000152588     1.089990019798     0.000000445710     
25.694999694824     1.084534049034     0.000000422676     
25.799999237061     1.079408049583     0.000000401561     
25.905000686646     1.074116945267     0.000000384286     
26.010000228882     1.068825960159     0.000000367394     
26.114999771118     1.063534021378     0.000000350886     
26.219999313354     1.058243036270     0.000000337066     
26.325000762939     1.053117036819     0.000000324013     
26.350000381470     1.042534947395     0.000000290787     
26.454999923706     1.037408947945     0.000000280715     
26.559999465942     1.032117962837     0.000000272279     
26.665000915527     1.026826977730     0.000000262669     
26.770000457764     1.021535038948     0.000000253604     
26.875000000000     1.016409993172     0.000000246931     
26.979999542236     1.010952949524     0.000000239587     
27.084999084473     1.005661964417     0.000000232117     
27.190000534058     1.000535964966     0.000000226746     
27.295000076294     0.995244979858     0.000000221332     
27.399999618530     0.989952981472     0.000000214827     
27.504999160767     0.984661996365     0.000000209665     
27.610000610352     0.979535996914     0.000000205972     
27.715000152588     0.974245011806     0.000000200852     
27.819999694824     0.968954026699     0.000000195984     
27.924999237061     0.963662981987     0.000000192837     
28.030000686646     0.958370983601     0.000000188808     
28.135000228882     0.953079998493     0.000000184024     
28.239999771118     0.947789013386     0.000000181212     
28.344999313354     0.942663013935     0.000000178652     
28.450000762939     0.937372028828     0.000000174329     
28.555000305176     0.932080984116     0.000000170510     
28.659999847412     0.926789999008     0.000000168622     
28.764999389648     0.921498000622     0.000000165516     
28.870000839233     0.916372001171     0.000000161865     
28.975000381470     0.911081016064     0.000000159767     
29.079999923706     0.905789971352     0.000000157249     
29.184999465942     0.900498986244     0.000000153220     
29.290000915527     0.895208001137     0.000000150870     
29.395000457764     0.889916002750     0.000000149191     
29.500000000000     0.884625017643     0.000000145792     
29.604999542236     0.879499018192     0.000000142519     
29.709999084473     0.874207973480     0.000000140882     
29.815000534058     0.868916988373     0.000000137902     
29.920000076294     0.863626003265     0.000000134503     
30.024999618530     0.858500003815     0.000000132405     
30.129999160767     0.853209018707     0.000000130180     
30.235000610352     0.847917020321     0.000000125690     
30.340000152588     0.842625975609     0.000000122794     
30.444999694824     0.837334990501     0.000000121116     
30.549999237061     0.832208991051     0.000000117548     
30.655000686646     0.826752007008     0.000000113310     
30.760000228882     0.821627020836     0.000000111086     
30.864999771118     0.816335022449     0.000000107728     
30.969999313354     0.811043977737     0.000000103154     
31.075000762939     0.805752992630     0.000000099713     
31.180000305176     0.800462007523     0.000000096649     
31.284999847412     0.795171022415     0.000000091277     
31.389999389648     0.790045022964     0.000000086367     
31.495000839233     0.784753024578     0.000000082255     
31.600000381470     0.779461979866     0.000000076673     
31.704999923706     0.774170994759     0.000000069874     
31.809999465942     0.768880009651     0.000000064125     
31.915000915527     0.763589024544     0.000000057159     
32.020000457764     0.758463025093     0.000000048639     
32.125000000000     0.753171980381     0.000000040959     
32.229999542236     0.747879981995     0.000000033573     
32.334999084473     0.742753982544     0.000000023375     
32.439998626709     0.737298011780     0.000000013094     
32.544998168945     0.732172012329     0.000000004029     
32.650001525879     0.726881027222     -0.000000006379     
32.700000762939     0.717952013016     -0.000000025051     
32.805000305176     0.712826013565     -0.000000037532     
32.909999847412     0.707700014114     -0.000000048411     
33.014999389648     0.702409029007     -0.000000060652     
33.119998931885     0.697283029556     -0.000000074366     
33.174999237061     0.688022971153     -0.000000101517     
33.279998779297     0.682897984982     -0.000000114359     
33.384998321533     0.677605986595     -0.000000127495     
33.490001678467     0.672315001488     -0.000000141721     
33.595001220703     0.667024016380     -0.000000157207     
33.700000762939     0.661732971668     -0.000000170552     
33.805000305176     0.656440973282     -0.000000183982     
33.909999847412     0.651149988174     -0.000000198670     
34.014999389648     0.646023988724     -0.000000211763     
34.119998931885     0.640733003616     -0.000000222759     
34.224998474121     0.635442018509     -0.000000234719     
34.330001831055     0.630150973797     -0.000000246218     
34.435001373291     0.624859988689     -0.000000255367     
34.540000915527     0.619733989239     -0.000000264474     
34.645000457764     0.614441990852     -0.000000274713     
34.750000000000     0.609151005745     -0.000000282058     
34.854999542236     0.603860020638     -0.000000288101     
34.959999084473     0.598734021187     -0.000000295067     
